Energy[eV]     Absorp.[arb.units]
0.0     2.3576746213856063e-05
0.0001190433     2.3576746223016768e-05
0.0002380866     2.3576746250498874e-05
0.0003571299     2.3576746296302384e-05
0.0004761732     2.357674636042729e-05
0.0005952165     2.3576746442873596e-05
0.0007142598     2.357674654364131e-05
0.0008333031     2.3576746662730436e-05
0.0009523464     2.3576746800140942e-05
0.0010713897     2.357674695587288e-05
0.001190433     2.3576747129926207e-05
0.0013094763     2.3576747322300945e-05
0.0014285196     2.357674753299708e-05
0.0015475629     2.357674776201463e-05
0.0016666062     2.3576748009353594e-05
0.0017856495     2.3576748275013958e-05
0.0019046928     2.3576748558995733e-05
0.0020237361     2.357674886129891e-05
0.0021427794     2.357674918192351e-05
0.0022618227     2.357674952086952e-05
0.002380866     2.3576749878136954e-05
0.0024999093     2.3576750253725783e-05
0.0026189526     2.357675064763605e-05
0.0027379959     2.3576751059867716e-05
0.0028570392     2.3576751490420808e-05
0.0029760825     2.357675193929533e-05
0.0030951258     2.357675240649127e-05
0.0032141691     2.357675289200864e-05
0.0033332124     2.357675339584743e-05
0.0034522557     2.3576753918007646e-05
0.003571299     2.357675445848931e-05
0.0036903422999999998     2.3576755017292386e-05
0.0038093856     2.357675559441691e-05
0.0039284289     2.357675618986286e-05
0.0040474722     2.357675680363025e-05
0.0041665155     2.3576757435719084e-05
0.0042855588     2.3576758086129366e-05
0.0044046021     2.357675875486108e-05
0.0045236454     2.357675944191425e-05
0.0046426887     2.3576760147288873e-05
0.004761732     2.3576760870984957e-05
0.0048807753     2.3576761613002485e-05
0.0049998186     2.357676237334147e-05
0.0051188619     2.357676315200192e-05
0.0052379052     2.3576763948983828e-05
0.0053569485     2.357676476428722e-05
0.0054759918     2.357676559791207e-05
0.0055950350999999995     2.3576766449858393e-05
0.0057140784     2.3576767320126193e-05
0.0058331217     2.3576768208715474e-05
0.005952165     2.3576769115626238e-05
0.0060712083     2.3576770040858486e-05
0.0061902516     2.3576770984412227e-05
0.0063092949     2.3576771946287457e-05
0.0064283382     2.3576772926484185e-05
0.0065473815     2.3576773925002412e-05
0.0066664248     2.357677494184215e-05
0.0067854681     2.3576775977003383e-05
0.0069045114     2.3576777030486133e-05
0.0070235547     2.3576778102290396e-05
0.007142598     2.3576779192416185e-05
0.0072616413     2.3576780300863494e-05
0.0073806845999999995     2.357678142763233e-05
0.0074997279     2.3576782572722684e-05
0.0076187712     2.357678373613459e-05
0.0077378145     2.3576784917868033e-05
0.0078568578     2.3576786117923015e-05
0.0079759011     2.3576787336299553e-05
0.0080949444     2.357678857299763e-05
0.0082139877     2.3576789828017275e-05
0.008333031     2.3576791101358486e-05
0.0084520743     2.3576792393021244e-05
0.0085711176     2.3576793703005595e-05
0.0086901609     2.3576795031311522e-05
0.0088092042     2.3576796377939006e-05
0.0089282475     2.3576797742888108e-05
0.0090472908     2.3576799126158776e-05
0.0091663341     2.3576800527751045e-05
0.0092853774     2.3576801947664924e-05
0.009404420699999999     2.3576803385900404e-05
0.009523464     2.357680484245749e-05
0.0096425073     2.3576806317336195e-05
0.0097615506     2.357680781053652e-05
0.0098805939     2.3576809322058483e-05
0.0099996372     2.3576810851902074e-05
0.0101186805     2.357681240006731e-05
0.0102377238     2.3576813966554185e-05
0.0103567671     2.357681555136271e-05
0.0104758104     2.35768171544929e-05
0.0105948537     2.3576818775944742e-05
0.010713897     2.357682041571824e-05
0.0108329403     2.357682207381343e-05
0.0109519836     2.3576823750230292e-05
0.0110710269     2.357682544496885e-05
0.011190070199999999     2.3576827158029092e-05
0.0113091135     2.3576828889411037e-05
0.0114281568     2.357683063911468e-05
0.0115472001     2.357683240714005e-05
0.0116662434     2.357683419348712e-05
0.0117852867     2.3576835998155917e-05
0.01190433     2.3576837821146447e-05
0.0120233733     2.3576839662458716e-05
0.0121424166     2.357684152209273e-05
0.0122614599     2.3576843400048503e-05
0.0123805032     2.3576845296326017e-05
0.0124995465     2.3576847210925308e-05
0.0126185898     2.357684914384637e-05
0.0127376331     2.35768510950892e-05
0.0128566764     2.3576853064653838e-05
0.012975719699999999     2.3576855052540252e-05
0.013094763     2.3576857058748474e-05
0.0132138063     2.3576859083278503e-05
0.0133328496     2.357686112613035e-05
0.0134518929     2.3576863187304023e-05
0.0135709362     2.357686526679951e-05
0.0136899795     2.3576867364616843e-05
0.0138090228     2.3576869480756036e-05
0.0139280661     2.3576871615217064e-05
0.0140471094     2.357687376799996e-05
0.0141661527     2.357687593910473e-05
0.014285196     2.3576878128531372e-05
0.0144042393     2.35768803362799e-05
0.0145232826     2.3576882562350322e-05
0.0146423259     2.357688480674265e-05
0.014761369199999999     2.3576887069456887e-05
0.0148804125     2.3576889350493036e-05
0.0149994558     2.3576891649851114e-05
0.0151184991     2.3576893967531125e-05
0.0152375424     2.357689630353308e-05
0.0153565857     2.357689865785698e-05
0.015475629     2.357690103050285e-05
0.0155946723     2.357690342147069e-05
0.0157137156     2.357690583076051e-05
0.0158327589     2.357690825837231e-05
0.0159518022     2.3576910704306105e-05
0.0160708455     2.3576913168561915e-05
0.0161898888     2.3576915651139735e-05
0.0163089321     2.357691815203957e-05
0.0164279754     2.357692067126144e-05
0.0165470187     2.3576923208805345e-05
0.016666062     2.357692576467131e-05
0.0167851053     2.3576928338859333e-05
0.0169041486     2.3576930931369422e-05
0.017023191899999998     2.3576933542201597e-05
0.0171422352     2.3576936171355856e-05
0.0172612785     2.3576938818832207e-05
0.0173803218     2.3576941484630673e-05
0.0174993651     2.3576944168751255e-05
0.0176184084     2.3576946871193963e-05
0.0177374517     2.3576949591958816e-05
0.017856495     2.357695233104581e-05
0.0179755383     2.3576955088454954e-05
0.0180945816     2.3576957864186276e-05
0.0182136249     2.357696065823977e-05
0.0183326682     2.3576963470615453e-05
0.0184517115     2.3576966301313328e-05
0.0185707548     2.357696915033341e-05
0.0186897981     2.3576972017675716e-05
0.018808841399999998     2.3576974903340262e-05
0.0189278847     2.357697780732704e-05
0.019046928     2.357698072963606e-05
0.0191659713     2.3576983670267347e-05
0.0192850146     2.3576986629220908e-05
0.0194040579     2.357698960649675e-05
0.0195231012     2.3576992602094884e-05
0.0196421445     2.3576995616015324e-05
0.0197611878     2.357699864825808e-05
0.0198802311     2.3577001698823165e-05
0.0199992744     2.3577004767710594e-05
0.0201183177     2.3577007854920353e-05
0.020237361     2.3577010960452477e-05
0.0203564043     2.357701408430699e-05
0.0204754476     2.3577017226483872e-05
0.020594490899999998     2.3577020386983156e-05
0.0207135342     2.3577023565804833e-05
0.0208325775     2.357702676294895e-05
0.0209516208     2.357702997841548e-05
0.0210706641     2.3577033212204455e-05
0.0211897074     2.3577036464315886e-05
0.0213087507     2.357703973474978e-05
0.021427794     2.3577043023506142e-05
0.0215468373     2.3577046330585017e-05
0.0216658806     2.357704965598638e-05
0.0217849239     2.3577052999710247e-05
0.0219039672     2.357705636175665e-05
0.0220230105     2.3577059742125585e-05
0.0221420538     2.357706314081708e-05
0.0222610971     2.3577066557831127e-05
0.022380140399999998     2.3577069993167754e-05
0.0224991837     2.3577073446826987e-05
0.022618227     2.357707691880879e-05
0.0227372703     2.357708040911322e-05
0.0228563136     2.357708391774028e-05
0.0229753569     2.357708744468998e-05
0.0230944002     2.3577090989962325e-05
0.0232134435     2.3577094553557334e-05
0.0233324868     2.357709813547503e-05
0.0234515301     2.357710173571541e-05
0.0235705734     2.35771053542785e-05
0.0236896167     2.35771089911643e-05
0.02380866     2.3577112646372846e-05
0.0239277033     2.3577116319904116e-05
0.0240467466     2.3577120011758155e-05
0.024165789899999998     2.3577123721934957e-05
0.0242848332     2.357712745043455e-05
0.0244038765     2.3577131197256948e-05
0.0245229198     2.357713496240215e-05
0.0246419631     2.3577138745870182e-05
0.0247610064     2.3577142547661048e-05
0.0248800497     2.357714636777476e-05
0.024999093     2.3577150206211362e-05
0.0251181363     2.357715406297083e-05
0.0252371796     2.357715793805321e-05
0.0253562229     2.3577161831458487e-05
0.0254752662     2.357716574318669e-05
0.0255943095     2.357716967323783e-05
0.0257133528     2.3577173621611918e-05
0.0258323961     2.357717758830899e-05
0.025951439399999998     2.357718157332904e-05
0.0260704827     2.3577185576672076e-05
0.026189526     2.357718959833812e-05
0.0263085693     2.3577193638327213e-05
0.0264276126     2.3577197696639334e-05
0.0265466559     2.3577201773274502e-05
0.0266656992     2.357720586823274e-05
0.0267847425     2.3577209981514098e-05
0.0269037858     2.3577214113118526e-05
0.0270228291     2.3577218263046073e-05
0.0271418724     2.3577222431296758e-05
0.0272609157     2.3577226617870582e-05
0.027379959     2.357723082276757e-05
0.0274990023     2.357723504598773e-05
0.0276180456     2.3577239287531092e-05
0.027737088899999998     2.3577243547397657e-05
0.0278561322     2.3577247825587442e-05
0.0279751755     2.3577252122100478e-05
0.0280942188     2.357725643693676e-05
0.0282132621     2.357726077009632e-05
0.0283323054     2.3577265121579155e-05
0.0284513487     2.35772694913853e-05
0.028570392     2.357727387951477e-05
0.0286894353     2.3577278285967568e-05
0.0288084786     2.357728271074372e-05
0.0289275219     2.357728715384324e-05
0.0290465652     2.357729161526613e-05
0.0291656085     2.3577296095012432e-05
0.0292846518     2.3577300593082158e-05
0.0294036951     2.3577305109475308e-05
0.029522738399999998     2.3577309644191904e-05
0.0296417817     2.357731419723196e-05
0.029760825     2.3577318768595512e-05
0.0298798683     2.357732335828255e-05
0.0299989116     2.3577327966293125e-05
0.0301179549     2.357733259262721e-05
0.0302369982     2.357733723728486e-05
0.0303560415     2.3577341900266075e-05
0.0304750848     2.3577346581570868e-05
0.0305941281     2.3577351281199263e-05
0.0307131714     2.3577355999151275e-05
0.0308322147     2.3577360735426937e-05
0.030951258     2.357736549002624e-05
0.0310703013     2.3577370262949205e-05
0.0311893446     2.3577375054195886e-05
0.0313083879     2.3577379863766244e-05
0.0314274312     2.3577384691660334e-05
0.0315464745     2.3577389537878165e-05
0.0316655178     2.3577394402419745e-05
0.0317845611     2.357739928528512e-05
0.0319036044     2.3577404186474283e-05
0.0320226477     2.357740910598726e-05
0.032141691     2.3577414043824066e-05
0.032260734299999996     2.3577418999984714e-05
0.0323797776     2.3577423974469225e-05
0.0324988209     2.357742896727762e-05
0.0326178642     2.3577433978409932e-05
0.0327369075     2.357743900786616e-05
0.0328559508     2.357744405564632e-05
0.0329749941     2.3577449121750442e-05
0.0330940374     2.3577454206178553e-05
0.0332130807     2.3577459308930643e-05
0.033332124     2.3577464430006756e-05
0.0334511673     2.35774695694069e-05
0.0335702106     2.3577474727131095e-05
0.0336892539     2.3577479903179355e-05
0.0338082972     2.3577485097551715e-05
0.0339273405     2.357749031024818e-05
0.034046383799999996     2.3577495541268774e-05
0.0341654271     2.3577500790613505e-05
0.0342844704     2.3577506058282408e-05
0.0344035137     2.357751134427549e-05
0.034522557     2.357751664859279e-05
0.0346416003     2.357752197123431e-05
0.0347606436     2.3577527312200067e-05
0.0348796869     2.3577532671490082e-05
0.0349987302     2.3577538049104397e-05
0.0351177735     2.3577543445043013e-05
0.0352368168     2.357754885930594e-05
0.0353558601     2.3577554291893215e-05
0.0354749034     2.357755974280485e-05
0.0355939467     2.3577565212040855e-05
0.03571299     2.357757069960128e-05
0.035832033299999996     2.357757620548612e-05
0.0359510766     2.3577581729695412e-05
0.0360701199     2.3577587272229146e-05
0.0361891632     2.357759283308739e-05
0.0363082065     2.357759841227011e-05
0.0364272498     2.357760400977737e-05
0.0365462931     2.3577609625609164e-05
0.0366653364     2.3577615259765537e-05
0.0367843797     2.3577620912246482e-05
0.036903423     2.3577626583052033e-05
0.0370224663     2.357763227218222e-05
0.0371415096     2.357763797963704e-05
0.0372605529     2.357764370541654e-05
0.0373795962     2.357764944952073e-05
0.0374986395     2.357765521194963e-05
0.037617682799999996     2.3577660992703258e-05
0.0377367261     2.3577666791781645e-05
0.0378557694     2.3577672609184804e-05
0.0379748127     2.3577678444912752e-05
0.038093856     2.357768429896552e-05
0.0382128993     2.3577690171343126e-05
0.0383319426     2.3577696062045596e-05
0.0384509859     2.357770197107294e-05
0.0385700292     2.3577707898425186e-05
0.0386890725     2.357771384410236e-05
0.0388081158     2.3577719808104487e-05
0.0389271591     2.3577725790431578e-05
0.0390462024     2.3577731791083647e-05
0.0391652457     2.357773781006075e-05
0.039284289     2.3577743847362874e-05
0.039403332299999996     2.357774990299006e-05
0.0395223756     2.3577755976942306e-05
0.0396414189     2.3577762069219677e-05
0.0397604622     2.3577768179822166e-05
0.0398795055     2.3577774308749793e-05
0.0399985488     2.357778045600259e-05
0.0401175921     2.3577786621580585e-05
0.0402366354     2.3577792805483787e-05
0.0403556787     2.3577799007712225e-05
0.040474722     2.357780522826591e-05
0.0405937653     2.3577811467144884e-05
0.0407128086     2.357781772434916e-05
0.0408318519     2.3577823999878768e-05
0.0409508952     2.3577830293733735e-05
0.0410699385     2.357783660591406e-05
0.041188981799999996     2.3577842936419777e-05
0.0413080251     2.3577849285250922e-05
0.0414270684     2.3577855652407514e-05
0.0415461117     2.3577862037889565e-05
0.041665155     2.3577868441697117e-05
0.0417841983     2.3577874863830172e-05
0.0419032416     2.3577881304288758e-05
0.0420222849     2.3577887763072908e-05
0.0421413282     2.3577894240182643e-05
0.0422603715     2.3577900735617977e-05
0.0423794148     2.3577907249378957e-05
0.0424984581     2.3577913781465586e-05
0.0426175014     2.357792033187789e-05
0.0427365447     2.3577926900615894e-05
0.042855588     2.357793348767963e-05
0.042974631299999996     2.357794009306913e-05
0.0430936746     2.357794671678438e-05
0.0432127179     2.3577953358825442e-05
0.0433317612     2.3577960019192324e-05
0.0434508045     2.357796669788506e-05
0.0435698478     2.357797339490367e-05
0.0436888911     2.3577980110248167e-05
0.0438079344     2.3577986843918592e-05
0.0439269777     2.357799359591497e-05
0.044046021     2.35780003662373e-05
0.0441650643     2.3578007154885635e-05
0.0442841076     2.3578013961860006e-05
0.0444031509     2.3578020787160405e-05
0.0445221942     2.3578027630786887e-05
0.0446412375     2.357803449273945e-05
0.044760280799999996     2.3578041373018144e-05
0.0448793241     2.3578048271622983e-05
0.0449983674     2.3578055188553987e-05
0.0451174107     2.3578062123811195e-05
0.045236454     2.357806907739462e-05
0.0453554973     2.35780760493043e-05
0.0454745406     2.357808303954024e-05
0.0455935839     2.3578090048102493e-05
0.0457126272     2.3578097074991068e-05
0.0458316705     2.3578104120205984e-05
0.0459507138     2.3578111183747285e-05
0.0460697571     2.357811826561498e-05
0.0461888004     2.357812536580911e-05
0.0463078437     2.3578132484329697e-05
0.046426887     2.3578139621176756e-05
0.046545930299999996     2.3578146776350317e-05
0.0466649736     2.357815394985041e-05
0.0467840169     2.3578161141677076e-05
0.0469030602     2.3578168351830317e-05
0.0470221035     2.3578175580310172e-05
0.0471411468     2.3578182827116656e-05
0.0472601901     2.3578190092249823e-05
0.0473792334     2.3578197375709662e-05
0.0474982767     2.3578204677496225e-05
0.04761732     2.357821199760954e-05
0.0477363633     2.357821933604961e-05
0.0478554066     2.357822669281649e-05
0.0479744499     2.3578234067910193e-05
0.0480934932     2.3578241461330748e-05
0.0482125365     2.3578248873078182e-05
0.048331579799999996     2.357825630315253e-05
0.0484506231     2.3578263751553794e-05
0.0485696664     2.357827121828203e-05
0.0486887097     2.3578278703337254e-05
0.048807753     2.3578286206719484e-05
0.0489267963     2.3578293728428773e-05
0.0490458396     2.3578301268465124e-05
0.0491648829     2.357830882682857e-05
0.0492839262     2.3578316403519155e-05
0.0494029695     2.357832399853688e-05
0.0495220128     2.3578331611881787e-05
0.0496410561     2.3578339243553906e-05
0.0497600994     2.3578346893553254e-05
0.0498791427     2.3578354561879887e-05
0.049998186     2.357836224853381e-05
0.050117229299999996     2.3578369953515038e-05
0.0502362726     2.357837767682362e-05
0.0503553159     2.357838541845958e-05
0.0504743592     2.3578393178422956e-05
0.0505934025     2.3578400956713757e-05
0.0507124458     2.357840875333203e-05
0.0508314891     2.3578416568277784e-05
0.0509505324     2.357842440155107e-05
0.0510695757     2.35784322531519e-05
0.051188619     2.3578440123080308e-05
0.0513076623     2.3578448011336322e-05
0.0514267056     2.3578455917919974e-05
0.0515457489     2.3578463842831288e-05
0.0516647922     2.3578471786070297e-05
0.0517838355     2.3578479747637026e-05
0.051902878799999996     2.3578487727531505e-05
0.0520219221     2.357849572575377e-05
0.0521409654     2.3578503742303855e-05
0.0522600087     2.357851177718177e-05
0.052379052     2.3578519830387557e-05
0.0524980953     2.3578527901921233e-05
0.0526171386     2.357853599178285e-05
0.0527361819     2.3578544099972424e-05
0.0528552252     2.3578552226489966e-05
0.0529742685     2.3578560371335553e-05
0.0530933118     2.3578568534509178e-05
0.0532123551     2.357857671601087e-05
0.0533313984     2.357858491584068e-05
0.0534504417     2.3578593133998616e-05
0.053569485     2.3578601370484728e-05
0.053688528299999996     2.3578609625299037e-05
0.0538075716     2.357861789844157e-05
0.0539266149     2.357862618991237e-05
0.0540456582     2.3578634499711446e-05
0.0541647015     2.357864282783885e-05
0.0542837448     2.35786511742946e-05
0.0544027881     2.3578659539078733e-05
0.0545218314     2.3578667922191273e-05
0.0546408747     2.3578676323632254e-05
0.054759918     2.357868474340171e-05
0.0548789613     2.3578693181499675e-05
0.0549980046     2.357870163792616e-05
0.0551170479     2.3578710112681216e-05
0.0552360912     2.357871860576487e-05
0.0553551345     2.3578727117177138e-05
0.055474177799999996     2.3578735646918084e-05
0.0555932211     2.3578744194987698e-05
0.0557122644     2.3578752761386052e-05
0.0558313077     2.3578761346113145e-05
0.055950351     2.3578769949169028e-05
0.0560693943     2.3578778570553728e-05
0.0561884376     2.3578787210267276e-05
0.0563074809     2.3578795868309695e-05
0.0564265242     2.3578804544681033e-05
0.0565455675     2.357881323938129e-05
0.0566646108     2.357882195241055e-05
0.0567836541     2.3578830683768808e-05
0.0569026974     2.3578839433456092e-05
0.0570217407     2.357884820147245e-05
0.057140784     2.3578856987817912e-05
0.057259827299999996     2.3578865792492506e-05
0.0573788706     2.357887461549627e-05
0.0574979139     2.3578883456829228e-05
0.0576169572     2.3578892316491415e-05
0.0577360005     2.3578901194482873e-05
0.0578550438     2.3578910090803626e-05
0.0579740871     2.3578919005453707e-05
0.0580931304     2.3578927938433148e-05
0.0582121737     2.357893688974198e-05
0.058331217     2.3578945859380233e-05
0.0584502603     2.357895484734796e-05
0.0585693036     2.3578963853645162e-05
0.0586883469     2.35789728782719e-05
0.0588073902     2.35789819212282e-05
0.0589264335     2.3578990982514083e-05
0.059045476799999996     2.357900006212959e-05
0.0591645201     2.357900916007476e-05
0.0592835634     2.357901827634962e-05
