Energy[eV]     Absorp.[arb.units]
0.0     3.9852363750640046e-05
0.0001259924     3.985236377072619e-05
0.0002519848     3.985236383098464e-05
0.0003779772     3.985236393141535e-05
0.0005039696     3.985236407201836e-05
0.0006299620000000001     3.985236425279363e-05
0.0007559544     3.985236447374121e-05
0.0008819468     3.985236473486108e-05
0.0010079392     3.9852365036153246e-05
0.0011339316000000001     3.9852365377617705e-05
0.0012599240000000002     3.985236575925445e-05
0.0013859164000000002     3.985236618106348e-05
0.0015119088     3.985236664304483e-05
0.0016379012     3.9852367145198464e-05
0.0017638936     3.985236768752442e-05
0.0018898860000000001     3.9852368270022676e-05
0.0020158784     3.985236889269322e-05
0.0021418708     3.9852369555536086e-05
0.0022678632000000002     3.985237025855128e-05
0.0023938556     3.985237100173878e-05
0.0025198480000000003     3.985237178509862e-05
0.0026458404     3.9852372608630776e-05
0.0027718328000000004     3.9852373472335276e-05
0.0028978252     3.985237437621208e-05
0.0030238176     3.985237532026125e-05
0.0031498100000000003     3.9852376304482757e-05
0.0032758024     3.985237732887661e-05
0.0034017948000000004     3.9852378393442845e-05
0.0035277872     3.98523794981814e-05
0.0036537796000000004     3.985238064309233e-05
0.0037797720000000003     3.985238182817567e-05
0.0039057644000000005     3.985238305343136e-05
0.0040317568     3.985238431885944e-05
0.004157749200000001     3.98523856244599e-05
0.0042837416     3.9852386970232764e-05
0.004409734     3.985238835617804e-05
0.0045357264000000005     3.9852389782295725e-05
0.004661718800000001     3.985239124858581e-05
0.0047877112     3.985239275504835e-05
0.0049137036     3.9852394301683315e-05
0.005039696000000001     3.9852395888490715e-05
0.0051656884     3.985239751547057e-05
0.0052916808     3.985239918262289e-05
0.0054176732000000005     3.985240088994766e-05
0.005543665600000001     3.985240263744491e-05
0.005669658     3.985240442511466e-05
0.0057956504     3.98524062529569e-05
0.005921642800000001     3.985240812097163e-05
0.0060476352     3.985241002915887e-05
0.0061736276     3.9852411977518645e-05
0.006299620000000001     3.985241396605096e-05
0.006425612400000001     3.985241599475581e-05
0.0065516048     3.98524180636332e-05
0.0066775972000000005     3.985242017268318e-05
0.006803589600000001     3.98524223219057e-05
0.006929582000000001     3.985242451130083e-05
0.0070555744     3.985242674086855e-05
0.007181566800000001     3.985242901060887e-05
0.007307559200000001     3.9852431320521824e-05
0.0074335516     3.9852433670607404e-05
0.0075595440000000005     3.9852436060865616e-05
0.007685536400000001     3.9852438491296486e-05
0.007811528800000001     3.985244096190004e-05
0.0079375212     3.985244347267626e-05
0.0080635136     3.9852446023625176e-05
0.008189506000000001     3.985244861474681e-05
0.008315498400000001     3.9852451246041154e-05
0.008441490800000001     3.985245391750822e-05
0.0085674832     3.9852456629148045e-05
0.0086934756     3.985245938096064e-05
0.008819468     3.985246217294598e-05
0.0089454604     3.985246500510415e-05
0.009071452800000001     3.985246787743511e-05
0.009197445200000001     3.985247078993886e-05
0.009323437600000001     3.985247374261546e-05
0.00944943     3.985247673546491e-05
0.0095754224     3.9852479768487224e-05
0.0097014148     3.985248284168242e-05
0.0098274072     3.98524859550505e-05
0.009953399600000001     3.9852489108591496e-05
0.010079392000000001     3.985249230230542e-05
0.010205384400000002     3.9852495536192284e-05
0.0103313768     3.9852498810252106e-05
0.0104573692     3.985250212448492e-05
0.0105833616     3.98525054788907e-05
0.010709354     3.9852508873469523e-05
0.010835346400000001     3.985251230822134e-05
0.010961338800000001     3.9852515783146225e-05
0.011087331200000002     3.985251929824415e-05
0.0112133236     3.985252285351518e-05
0.011339316     3.98525264489593e-05
0.0114653084     3.9852530084576525e-05
0.0115913008     3.98525337603669e-05
0.011717293200000001     3.985253747633044e-05
0.011843285600000001     3.9852541232467126e-05
0.011969278000000002     3.9852545028777024e-05
0.0120952704     3.985254886526014e-05
0.0122212628     3.9852552741916464e-05
0.0123472552     3.9852556658746046e-05
0.012473247600000001     3.985256061574891e-05
0.012599240000000001     3.985256461292507e-05
0.012725232400000001     3.9852568650274544e-05
0.012851224800000002     3.985257272779733e-05
0.012977217200000002     3.985257684549348e-05
0.0131032096     3.985258100336301e-05
0.013229202     3.985258520140593e-05
0.013355194400000001     3.9852589439622265e-05
0.013481186800000001     3.985259371801205e-05
0.013607179200000001     3.9852598036575275e-05
0.013733171600000002     3.985260239531201e-05
0.013859164000000002     3.985260679422224e-05
0.0139851564     3.9852611233306e-05
0.0141111488     3.985261571256329e-05
0.014237141200000001     3.985262023199417e-05
0.014363133600000001     3.985262479159866e-05
0.014489126000000001     3.985262939137674e-05
0.014615118400000002     3.985263403132848e-05
0.014741110800000002     3.9852638711453895e-05
0.0148671032     3.9852643431752984e-05
0.0149930956     3.98526481922258e-05
0.015119088000000001     3.985265299287234e-05
0.015245080400000001     3.985265783369267e-05
0.015371072800000002     3.985266271468676e-05
0.015497065200000002     3.9852667635854686e-05
0.015623057600000002     3.985267259719644e-05
0.01574905     3.985267759871205e-05
0.0158750424     3.985268264040156e-05
0.0160010348     3.9852687722264984e-05
0.0161270272     3.9852692844302354e-05
0.0162530196     3.985269800651368e-05
0.016379012000000002     3.985270320889901e-05
0.016505004400000002     3.9852708451458357e-05
0.016630996800000002     3.9852713734191775e-05
0.016756989200000003     3.985271905709923e-05
0.016882981600000003     3.985272442018079e-05
0.017008974000000003     3.985272982343649e-05
0.0171349664     3.985273526686635e-05
0.0172609588     3.985274075047038e-05
0.0173869512     3.985274627424863e-05
0.0175129436     3.9852751838201136e-05
0.017638936     3.985275744232789e-05
0.0177649284     3.985276308662896e-05
0.0178909208     3.985276877110432e-05
0.0180169132     3.985277449575407e-05
0.018142905600000002     3.98527802605782e-05
0.018268898000000002     3.985278606557673e-05
0.018394890400000002     3.9852791910749714e-05
0.018520882800000003     3.985279779609717e-05
0.018646875200000003     3.985280372161913e-05
0.018772867600000003     3.985280968731563e-05
0.01889886     3.985281569318668e-05
0.0190248524     3.985282173923234e-05
0.0191508448     3.9852827825452614e-05
0.0192768372     3.985283395184755e-05
0.0194028296     3.985284011841719e-05
0.019528822     3.985284632516152e-05
0.0196548144     3.9852852572080626e-05
0.019780806800000002     3.98528588591745e-05
0.019906799200000002     3.98528651864432e-05
0.020032791600000002     3.985287155388674e-05
0.020158784000000003     3.985287796150516e-05
0.020284776400000003     3.98528844092985e-05
0.020410768800000003     3.985289089726678e-05
0.020536761200000003     3.985289742541005e-05
0.0206627536     3.985290399372832e-05
0.020788746     3.985291060222164e-05
0.0209147384     3.9852917250890053e-05
0.0210407308     3.9852923939733557e-05
0.0211667232     3.9852930668752225e-05
0.0212927156     3.985293743794607e-05
0.021418708     3.985294424731513e-05
0.021544700400000002     3.985295109685945e-05
0.021670692800000002     3.985295798657905e-05
0.021796685200000002     3.985296491647398e-05
0.021922677600000003     3.985297188654426e-05
0.022048670000000003     3.9852978896789945e-05
0.022174662400000003     3.9852985947211044e-05
0.022300654800000003     3.985299303780762e-05
0.0224266472     3.985300016857968e-05
0.0225526396     3.985300733952729e-05
0.022678632     3.985301455065048e-05
0.0228046244     3.985302180194927e-05
0.0229306168     3.9853029093423715e-05
0.0230566092     3.985303642507383e-05
0.0231826016     3.985304379689971e-05
0.023308594000000002     3.9853051208901316e-05
0.023434586400000002     3.985305866107872e-05
0.023560578800000002     3.985306615343196e-05
0.023686571200000003     3.985307368596109e-05
0.023812563600000003     3.985308125866612e-05
0.023938556000000003     3.9853088871547104e-05
0.024064548400000003     3.985309652460409e-05
0.0241905408     3.98531042178371e-05
0.0243165332     3.985311195124618e-05
0.0244425256     3.985311972483137e-05
0.024568518     3.9853127538592696e-05
0.0246945104     3.985313539253023e-05
0.0248205028     3.985314328664396e-05
0.024946495200000002     3.9853151220933995e-05
0.025072487600000002     3.985315919540032e-05
0.025198480000000002     3.9853167210043005e-05
0.025324472400000003     3.985317526486208e-05
0.025450464800000003     3.9853183359857584e-05
0.025576457200000003     3.985319149502957e-05
0.025702449600000003     3.985319967037806e-05
0.025828442000000004     3.985320788590311e-05
0.025954434400000004     3.985321614160476e-05
0.0260804268     3.9853224437483056e-05
0.0262064192     3.985323277353803e-05
0.0263324116     3.985324114976972e-05
0.026458404     3.9853249566178195e-05
0.0265843964     3.985325802276348e-05
0.026710388800000002     3.985326651952562e-05
0.026836381200000002     3.9853275056464644e-05
0.026962373600000002     3.9853283633580645e-05
0.027088366000000003     3.985329225087361e-05
0.027214358400000003     3.985330090834359e-05
0.027340350800000003     3.9853309605990665e-05
0.027466343200000003     3.9853318343814843e-05
0.027592335600000004     3.98533271218162e-05
0.027718328000000004     3.9853335939994755e-05
0.0278443204     3.985334479835058e-05
0.0279703128     3.9853353696883684e-05
0.0280963052     3.985336263559415e-05
0.0282222976     3.985337161448199e-05
0.02834829     3.985338063354727e-05
0.028474282400000002     3.985338969279004e-05
0.028600274800000002     3.985339879221032e-05
0.028726267200000002     3.98534079318082e-05
0.028852259600000003     3.985341711158368e-05
0.028978252000000003     3.9853426331536825e-05
0.029104244400000003     3.9853435591667695e-05
0.029230236800000003     3.985344489197634e-05
0.029356229200000004     3.985345423246277e-05
0.029482221600000004     3.985346361312708e-05
0.029608214     3.985347303396929e-05
0.0297342064     3.9853482494989444e-05
0.0298601988     3.98534919961876e-05
0.0299861912     3.9853501537563825e-05
0.030112183600000002     3.985351111911814e-05
0.030238176000000002     3.98535207408506e-05
0.030364168400000002     3.985353040276127e-05
0.030490160800000003     3.985354010485017e-05
0.030616153200000003     3.9853549847117374e-05
0.030742145600000003     3.9853559629562905e-05
0.030868138000000003     3.985356945218687e-05
0.030994130400000004     3.985357931498924e-05
0.031120122800000004     3.985358921797015e-05
0.031246115200000004     3.985359916112958e-05
0.031372107600000004     3.9853609144467614e-05
0.0314981     3.9853619167984305e-05
0.031624092400000005     3.9853629231679686e-05
0.0317500848     3.9853639335553824e-05
0.031876077200000005     3.985364947960677e-05
0.0320020696     3.985365966383855e-05
0.032128062000000006     3.9853669888249255e-05
0.0322540544     3.985368015283893e-05
0.0323800468     3.985369045760759e-05
0.0325060392     3.985370080255534e-05
0.0326320316     3.985371118768219e-05
0.032758024000000004     3.9853721612988235e-05
0.0328840164     3.985373207847348e-05
0.033010008800000004     3.985374258413801e-05
0.0331360012     3.9853753129981874e-05
0.033261993600000005     3.9853763716005116e-05
0.033387986     3.985377434220781e-05
0.033513978400000005     3.985378500859e-05
0.0336399708     3.9853795715151714e-05
0.033765963200000006     3.9853806461893054e-05
0.0338919556     3.9853817248814045e-05
0.034017948000000006     3.9853828075914736e-05
0.0341439404     3.985383894319521e-05
0.0342699328     3.9853849850655506e-05
0.034395925200000003     3.985386079829568e-05
0.0345219176     3.9853871786115776e-05
0.034647910000000004     3.985388281411588e-05
0.0347739024     3.985389388229601e-05
0.034899894800000004     3.985390499065628e-05
0.0350258872     3.985391613919669e-05
0.035151879600000005     3.985392732791732e-05
0.035277872     3.985393855681823e-05
0.035403864400000006     3.985394982589946e-05
0.0355298568     3.9853961135161096e-05
0.035655849200000006     3.985397248460317e-05
0.0357818416     3.985398387422575e-05
0.035907834     3.985399530402889e-05
0.0360338264     3.985400677401268e-05
0.0361598188     3.985401828417711e-05
0.036285811200000004     3.985402983452231e-05
0.0364118036     3.98540414250483e-05
0.036537796000000004     3.985405305575515e-05
0.0366637884     3.985406472664292e-05
0.036789780800000005     3.985407643771165e-05
0.0369157732     3.9854088188961425e-05
0.037041765600000005     3.9854099980392314e-05
0.037167758     3.985411181200434e-05
0.037293750400000006     3.98541236837976e-05
0.0374197428     3.9854135595772114e-05
0.037545735200000006     3.9854147547928e-05
0.0376717276     3.9854159540265264e-05
0.03779772     3.9854171572784004e-05
0.037923712400000004     3.985418364548426e-05
0.0380497048     3.98541957583661e-05
0.038175697200000004     3.985420791142959e-05
0.0383016896     3.985422010467479e-05
0.038427682000000005     3.985423233810175e-05
0.0385536744     3.985424461171056e-05
0.038679666800000005     3.9854256925501255e-05
0.0388056592     3.985426927947391e-05
0.038931651600000006     3.98542816736286e-05
0.039057644     3.985429410796536e-05
0.039183636400000006     3.985430658248428e-05
0.0393096288     3.9854319097185404e-05
0.0394356212     3.985433165206881e-05
0.039561613600000003     3.985434424713457e-05
0.039687606     3.9854356882382724e-05
0.039813598400000004     3.985436955781335e-05
0.0399395908     3.985438227342651e-05
0.040065583200000005     3.985439502922227e-05
0.0401915756     3.985440782520069e-05
0.040317568000000005     3.9854420661361845e-05
0.0404435604     3.98544335377058e-05
0.040569552800000006     3.985444645423261e-05
0.0406955452     3.9854459410942355e-05
0.040821537600000006     3.985447240783509e-05
0.04094753     3.9854485444910874e-05
0.04107352240000001     3.985449852216981e-05
0.0411995148     3.985451163961193e-05
0.0413255072     3.9854524797237305e-05
0.041451499600000004     3.985453799504602e-05
0.041577492     3.98545512330381e-05
0.041703484400000004     3.985456451121368e-05
0.0418294768     3.9854577829572766e-05
0.041955469200000005     3.985459118811547e-05
0.0420814616     3.985460458684184e-05
0.042207454000000005     3.985461802575195e-05
0.0423334464     3.985463150484585e-05
0.042459438800000006     3.985464502412362e-05
0.0425854312     3.985465858358534e-05
0.042711423600000006     3.985467218323108e-05
0.042837416     3.98546858230609e-05
0.04296340840000001     3.985469950307486e-05
0.043089400800000004     3.9854713223273045e-05
0.0432153932     3.985472698365553e-05
0.043341385600000004     3.985474078422236e-05
0.043467378     3.9854754624973635e-05
0.043593370400000005     3.985476850590941e-05
0.0437193628     3.9854782427029764e-05
0.043845355200000005     3.9854796388334756e-05
0.0439713476     3.985481038982446e-05
0.044097340000000006     3.985482443149896e-05
0.0442233324     3.985483851335831e-05
0.044349324800000006     3.9854852635402605e-05
0.0444753172     3.9854866797631896e-05
0.04460130960000001     3.9854881000046267e-05
0.044727302000000004     3.985489524264578e-05
0.0448532944     3.985490952543052e-05
0.044979286800000004     3.985492384840056e-05
0.0451052792     3.985493821155596e-05
0.045231271600000005     3.98549526148968e-05
0.045357264     3.985496705842317e-05
0.045483256400000005     3.98549815421351e-05
0.0456092488     3.98549960660327e-05
0.045735241200000006     3.985501063011604e-05
0.0458612336     3.985502523438521e-05
0.045987226000000006     3.9855039878840244e-05
0.0461132184     3.9855054563481246e-05
0.04623921080000001     3.985506928830828e-05
0.0463652032     3.9855084053321436e-05
0.04649119560000001     3.9855098858520766e-05
0.046617188000000004     3.9855113703906374e-05
0.0467431804     3.985512858947828e-05
0.046869172800000004     3.985514351523664e-05
0.0469951652     3.985515848118147e-05
0.047121157600000005     3.985517348731287e-05
0.04724715     3.985518853363091e-05
0.047373142400000005     3.9855203620135676e-05
0.0474991348     3.985521874682724e-05
0.047625127200000006     3.985523391370568e-05
0.0477511196     3.985524912077108e-05
0.047877112000000006     3.98552643680235e-05
0.0480031044     3.985527965546303e-05
0.04812909680000001     3.985529498308973e-05
0.048255089200000004     3.9855310350903726e-05
0.0483810816     3.985532575890503e-05
0.048507074000000004     3.985534120709377e-05
0.0486330664     3.985535669547001e-05
0.048759058800000005     3.985537222403385e-05
0.0488850512     3.985538779278532e-05
0.049011043600000005     3.9855403401724545e-05
0.049137036     3.9855419050851586e-05
0.049263028400000006     3.985543474016652e-05
0.0493890208     3.985545046966943e-05
0.049515013200000006     3.985546623936041e-05
0.0496410056     3.9855482049239525e-05
0.04976699800000001     3.9855497899306844e-05
0.049892990400000004     3.985551378956248e-05
0.05001898280000001     3.9855529720006504e-05
0.050144975200000004     3.9855545690638994e-05
0.0502709676     3.985556170146001e-05
0.050396960000000005     3.985557775246966e-05
0.0505229524     3.985559384366802e-05
0.050648944800000005     3.985560997505518e-05
0.0507749372     3.9855626146631205e-05
0.050900929600000006     3.98556423583962e-05
0.051026922     3.9855658610350214e-05
0.051152914400000006     3.985567490249336e-05
0.0512789068     3.9855691234825716e-05
0.05140489920000001     3.9855707607347334e-05
0.0515308916     3.985572402005838e-05
0.05165688400000001     3.985574047295885e-05
0.051782876400000004     3.985575696604885e-05
0.05190886880000001     3.9855773499328475e-05
0.052034861200000004     3.985579007279784e-05
0.0521608536     3.9855806686456976e-05
0.052286846000000005     3.985582334030598e-05
0.0524128384     3.985584003434498e-05
0.052538830800000005     3.9855856768574005e-05
0.0526648232     3.985587354299318e-05
0.052790815600000006     3.9855890357602563e-05
0.052916808     3.985590721240228e-05
0.053042800400000006     3.9855924107392364e-05
0.0531687928     3.9855941042572924e-05
0.05329478520000001     3.9855958017944065e-05
0.053420777600000004     3.9855975033505856e-05
0.05354677000000001     3.985599208925838e-05
0.053672762400000004     3.9856009185201725e-05
0.0537987548     3.9856026321336e-05
0.053924747200000005     3.9856043497661276e-05
0.0540507396     3.985606071417764e-05
0.054176732000000005     3.985607797088516e-05
0.0543027244     3.985609526778397e-05
0.054428716800000006     3.985611260487412e-05
0.0545547092     3.985612998215571e-05
0.054680701600000006     3.9856147399628845e-05
0.054806694     3.9856164857293594e-05
0.05493268640000001     3.985618235515006e-05
0.055058678800000004     3.985619989319831e-05
0.05518467120000001     3.985621747143848e-05
0.055310663600000004     3.9856235089870604e-05
0.05543665600000001     3.9856252748494794e-05
0.055562648400000005     3.985627044731116e-05
0.0556886408     3.985628818631977e-05
0.055814633200000005     3.985630596552071e-05
0.0559406256     3.985632378491407e-05
0.056066618000000006     3.985634164449998e-05
0.0561926104     3.98563595442785e-05
0.056318602800000006     3.985637748424971e-05
0.0564445952     3.985639546441371e-05
0.05657058760000001     3.985641348477063e-05
0.05669658     3.98564315453205e-05
0.05682257240000001     3.985644964606345e-05
0.056948564800000004     3.985646778699957e-05
0.05707455720000001     3.9856485968128944e-05
0.057200549600000004     3.985650418945168e-05
0.05732654200000001     3.985652245096785e-05
0.057452534400000005     3.9856540752677566e-05
0.0575785268     3.985655909458091e-05
0.057704519200000005     3.9856577476677967e-05
0.0578305116     3.9856595898968854e-05
