Energy[eV]     Absorp.[arb.units]
0.0     2.5190465002606713e-05
0.0001303775     2.519046501694801e-05
0.000260755     2.5190465059971908e-05
0.0003911325     2.5190465131678397e-05
0.00052151     2.51904652320675e-05
0.0006518875     2.5190465361139185e-05
0.000782265     2.5190465518893488e-05
0.0009126424999999999     2.519046570533038e-05
0.00104302     2.5190465920449877e-05
0.0011733975     2.5190466164251973e-05
0.001303775     2.5190466436736682e-05
0.0014341525     2.5190466737903986e-05
0.00156453     2.5190467067753906e-05
0.0016949075     2.519046742628644e-05
0.0018252849999999998     2.519046781350157e-05
0.0019556625     2.5190468229399326e-05
0.00208604     2.519046867397969e-05
0.0022164174999999998     2.519046914724268e-05
0.002346795     2.5190469649188278e-05
0.0024771725     2.519047017981651e-05
0.00260755     2.5190470739127367e-05
0.0027379275     2.519047132712085e-05
0.002868305     2.519047194379696e-05
0.0029986825     2.5190472589155717e-05
0.00312906     2.5190473263197106e-05
0.0032594374999999997     2.5190473965921145e-05
0.003389815     2.5190474697327823e-05
0.0035201925     2.5190475457417152e-05
0.0036505699999999997     2.5190476246189147e-05
0.0037809475     2.5190477063643788e-05
0.003911325     2.5190477909781093e-05
0.0040417025     2.5190478784601068e-05
0.00417208     2.519047968810372e-05
0.0043024575     2.5190480620289038e-05
0.0044328349999999996     2.5190481581157054e-05
0.0045632125     2.5190482570707753e-05
0.00469359     2.519048358894114e-05
0.0048239675     2.5190484635857224e-05
0.004954345     2.519048571145602e-05
0.0050847225     2.5190486815737527e-05
0.0052151     2.519048794870175e-05
0.0053454775     2.5190489110348683e-05
0.005475855     2.5190490300678354e-05
0.0056062325     2.519049151969076e-05
0.00573661     2.5190492767385908e-05
0.0058669874999999995     2.51904940437638e-05
0.005997365     2.5190495348824456e-05
0.0061277425     2.5190496682567865e-05
0.00625812     2.5190498044994045e-05
0.0063884975     2.5190499436103007e-05
0.0065188749999999995     2.5190500855894747e-05
0.0066492525     2.5190502304369283e-05
0.00677963     2.519050378152662e-05
0.0069100075     2.5190505287366762e-05
0.007040385     2.519050682188972e-05
0.0071707624999999995     2.5190508385095504e-05
0.007301139999999999     2.519050997698412e-05
0.0074315175     2.519051159755558e-05
0.007561895     2.5190513246809888e-05
0.0076922725     2.519051492474705e-05
0.00782265     2.5190516631367093e-05
0.0079530275     2.519051836667e-05
0.008083405     2.5190520130655805e-05
0.008213782499999999     2.5190521923324496e-05
0.00834416     2.5190523744676102e-05
0.0084745375     2.519052559471061e-05
0.008604915     2.519052747342806e-05
0.0087352925     2.5190529380828437e-05
0.008865669999999999     2.5190531316911767e-05
0.0089960475     2.519053328167805e-05
0.009126425     2.5190535275127297e-05
0.0092568025     2.519053729725953e-05
0.00938718     2.5190539348074744e-05
0.0095175575     2.5190541427572966e-05
0.009647935     2.5190543535754194e-05
0.0097783125     2.5190545672618447e-05
0.00990869     2.5190547838165736e-05
0.0100390675     2.5190550032396068e-05
0.010169445     2.5190552255309457e-05
0.0102998225     2.519055450690592e-05
0.0104302     2.5190556787185464e-05
0.0105605775     2.519055909614811e-05
0.010690955     2.5190561433793852e-05
0.0108213325     2.519056380012272e-05
0.01095171     2.5190566195134713e-05
0.011082087499999999     2.519056861882986e-05
0.011212465     2.5190571071208162e-05
0.0113428425     2.519057355226964e-05
0.01147322     2.5190576062014298e-05
0.0116035975     2.519057860044215e-05
0.011733974999999999     2.5190581167553224e-05
0.0118643525     2.5190583763347524e-05
0.01199473     2.5190586387825064e-05
0.0121251075     2.5190589040985856e-05
0.012255485     2.519059172282992e-05
0.012385862499999999     2.5190594433357268e-05
0.01251624     2.5190597172567914e-05
0.0126466175     2.5190599940461867e-05
0.012776995     2.5190602737039157e-05
0.0129073725     2.5190605562299775e-05
0.013037749999999999     2.5190608416243772e-05
0.0131681275     2.5190611298871136e-05
0.013298505     2.5190614210181882e-05
0.0134288825     2.5190617150176044e-05
0.01355926     2.5190620118853617e-05
0.013689637499999999     2.5190623116214633e-05
0.013820015     2.51906261422591e-05
0.0139503925     2.5190629196987038e-05
0.01408077     2.5190632280398463e-05
0.0142111475     2.5190635392493395e-05
0.014341524999999999     2.5190638533271838e-05
0.0144719025     2.519064170273382e-05
0.014602279999999999     2.519064490087936e-05
0.0147326575     2.519064812770847e-05
0.014863035     2.5190651383221173e-05
0.014993412499999999     2.5190654667417473e-05
0.01512379     2.5190657980297405e-05
0.015254167499999999     2.5190661321860976e-05
0.015384545     2.5190664692108206e-05
0.0155149225     2.519066809103912e-05
0.0156453     2.5190671518653727e-05
0.015775677499999998     2.519067497495204e-05
0.015906055     2.519067845993411e-05
0.0160364325     2.5190681973599914e-05
0.01616681     2.5190685515949494e-05
0.0162971875     2.5190689086982863e-05
0.016427564999999998     2.5190692686700053e-05
0.0165579425     2.5190696315101062e-05
0.01668832     2.519069997218592e-05
0.0168186975     2.519070365795465e-05
0.016949075     2.5190707372407273e-05
0.017079452499999998     2.5190711115543804e-05
0.01720983     2.519071488736427e-05
0.0173402075     2.5190718687868672e-05
0.017470585     2.5190722517057052e-05
0.0176009625     2.5190726374929427e-05
0.017731339999999998     2.5190730261485808e-05
0.0178617175     2.5190734176726224e-05
0.017992095     2.5190738120650695e-05
0.0181224725     2.5190742093259236e-05
0.01825285     2.5190746094551887e-05
0.018383227499999998     2.5190750124528642e-05
0.018513605     2.5190754183189547e-05
0.0186439825     2.5190758270534617e-05
0.01877436     2.5190762386563864e-05
0.0189047375     2.519076653127732e-05
0.019035115     2.5190770704675007e-05
0.0191654925     2.5190774906756947e-05
0.01929587     2.5190779137523163e-05
0.0194262475     2.5190783396973666e-05
0.019556625     2.5190787685108502e-05
0.0196870025     2.519079200192767e-05
0.01981738     2.5190796347431223e-05
0.0199477575     2.5190800721619148e-05
0.020078135     2.51908051244915e-05
0.0202085125     2.5190809556048277e-05
0.02033889     2.5190814016289532e-05
0.0204692675     2.5190818505215263e-05
0.020599645     2.519082302282551e-05
0.0207300225     2.5190827569120292e-05
0.0208604     2.5190832144099627e-05
0.0209907775     2.519083674776355e-05
0.021121155     2.519084138011208e-05
0.0212515325     2.519084604114525e-05
0.02138191     2.5190850730863076e-05
0.021512287499999998     2.519085544926558e-05
0.021642665     2.5190860196352805e-05
0.0217730425     2.5190864972124763e-05
0.02190342     2.519086977658148e-05
0.0220337975     2.5190874609722988e-05
0.022164174999999998     2.5190879471549316e-05
0.0222945525     2.5190884362060475e-05
0.02242493     2.5190889281256497e-05
0.0225553075     2.5190894229137425e-05
0.022685685     2.519089920570327e-05
0.022816062499999998     2.5190904210954058e-05
0.02294644     2.5190909244889823e-05
0.0230768175     2.5190914307510583e-05
0.023207195     2.519091939881638e-05
0.0233375725     2.519092451880723e-05
0.023467949999999998     2.5190929667483164e-05
0.0235983275     2.5190934844844217e-05
0.023728705     2.5190940050890396e-05
0.0238590825     2.5190945285621752e-05
0.02398946     2.5190950549038306e-05
0.024119837499999998     2.5190955841140078e-05
0.024250215     2.5190961161927102e-05
0.0243805925     2.519096651139942e-05
0.02451097     2.5190971889557044e-05
0.0246413475     2.5190977296400003e-05
0.024771724999999998     2.5190982731928346e-05
0.0249021025     2.519098819614207e-05
0.02503248     2.5190993689041232e-05
0.0251628575     2.5190999210625842e-05
0.025293235     2.5191004760895955e-05
0.025423612499999998     2.5191010339851577e-05
0.02555399     2.5191015947492753e-05
0.0256843675     2.5191021583819503e-05
0.025814745     2.5191027248831863e-05
0.0259451225     2.5191032942529872e-05
0.026075499999999998     2.5191038664913536e-05
0.0262058775     2.519104441598291e-05
0.026336255     2.519105019573802e-05
0.0264666325     2.519105600417889e-05
0.02659701     2.519106184130556e-05
0.026727387499999998     2.519106770711805e-05
0.026857765     2.5191073601616396e-05
0.0269881425     2.519107952480064e-05
0.02711852     2.5191085476670806e-05
0.0272488975     2.5191091457226923e-05
0.027379274999999998     2.5191097466469025e-05
0.0275096525     2.5191103504397158e-05
0.02764003     2.5191109571011335e-05
0.0277704075     2.5191115666311605e-05
0.027900785     2.519112179029799e-05
0.028031162499999998     2.5191127942970522e-05
0.02816154     2.5191134124329237e-05
0.0282919175     2.519114033437417e-05
0.028422295     2.519114657310536e-05
0.0285526725     2.5191152840522834e-05
0.028683049999999998     2.5191159136626633e-05
0.0288134275     2.5191165461416774e-05
0.028943805     2.519117181489331e-05
0.0290741825     2.5191178197056266e-05
0.029204559999999997     2.519118460790568e-05
0.029334937499999998     2.519119104744158e-05
0.029465315     2.5191197515664008e-05
0.0295956925     2.5191204012572996e-05
0.02972607     2.5191210538168584e-05
0.029856447499999998     2.5191217092450797e-05
0.029986824999999998     2.5191223675419688e-05
0.0301172025     2.519123028707528e-05
0.03024758     2.5191236927417606e-05
0.0303779575     2.5191243596446704e-05
0.030508334999999998     2.519125029416261e-05
0.030638712499999998     2.5191257020565367e-05
0.03076909     2.519126377565501e-05
0.0308994675     2.519127055943157e-05
0.031029845     2.519127737189509e-05
0.031160222499999998     2.5191284213045595e-05
0.0312906     2.5191291082883132e-05
0.0314209775     2.519129798140774e-05
0.031551354999999996     2.5191304908619447e-05
0.0316817325     2.5191311864518303e-05
0.03181211     2.5191318849104336e-05
0.0319424875     2.519132586237758e-05
0.032072865     2.519133290433809e-05
0.0322032425     2.519133997498589e-05
0.03233362     2.519134707432102e-05
0.0324639975     2.5191354202343525e-05
0.032594375     2.5191361359053432e-05
0.0327247525     2.519136854445079e-05
0.032855129999999996     2.519137575853563e-05
0.0329855075     2.5191383001308003e-05
0.033115885     2.5191390272767933e-05
0.0332462625     2.519139757291547e-05
0.03337664     2.5191404901750647e-05
0.0335070175     2.5191412259273516e-05
0.033637395     2.5191419645484103e-05
0.0337677725     2.5191427060382456e-05
0.03389815     2.5191434503968605e-05
0.034028527499999996     2.5191441976242605e-05
0.034158904999999996     2.5191449477204476e-05
0.0342892825     2.5191457006854275e-05
0.03441966     2.5191464565192047e-05
0.0345500375     2.519147215221782e-05
0.034680415     2.5191479767931644e-05
0.0348107925     2.5191487412333554e-05
0.03494117     2.5191495085423592e-05
0.0350715475     2.5191502787201802e-05
0.035201925     2.5191510517668226e-05
0.035332302499999996     2.5191518276822897e-05
0.035462679999999996     2.5191526064665865e-05
0.0355930575     2.5191533881197175e-05
0.035723435     2.519154172641687e-05
0.0358538125     2.5191549600324984e-05
0.03598419     2.5191557502921564e-05
0.0361145675     2.5191565434206655e-05
0.036244945     2.51915733941803e-05
0.0363753225     2.519158138284253e-05
0.0365057     2.519158940019341e-05
0.036636077499999996     2.5191597446232962e-05
0.036766454999999997     2.519160552096125e-05
0.0368968325     2.5191613624378296e-05
0.03702721     2.519162175648415e-05
0.0371575875     2.519162991727887e-05
0.037287965     2.5191638106762487e-05
0.0374183425     2.519164632493505e-05
0.03754872     2.5191654571796603e-05
0.0376790975     2.519166284734719e-05
0.037809475     2.5191671151586848e-05
0.037939852499999996     2.5191679484515637e-05
0.03807023     2.51916878461336e-05
0.0382006075     2.5191696236440764e-05
0.038330985     2.5191704655437197e-05
0.0384613625     2.5191713103122928e-05
0.03859174     2.5191721579498006e-05
0.0387221175     2.51917300845625e-05
0.038852495     2.5191738618316415e-05
0.0389828725     2.519174718075983e-05
0.03911325     2.5191755771892775e-05
0.039243627499999996     2.51917643917153e-05
0.039374005     2.5191773040227456e-05
0.0395043825     2.5191781717429283e-05
0.03963476     2.5191790423320837e-05
0.0397651375     2.5191799157902166e-05
0.039895515     2.5191807921173295e-05
0.0400258925     2.5191816713134303e-05
0.04015627     2.519182553378521e-05
0.0402866475     2.519183438312609e-05
0.040417025     2.5191843261156957e-05
0.040547402499999996     2.5191852167877895e-05
0.04067778     2.5191861103288927e-05
0.0408081575     2.5191870067390117e-05
0.040938535     2.5191879060181495e-05
0.0410689125     2.5191888081663133e-05
0.04119929     2.5191897131835068e-05
0.0413296675     2.5191906210697343e-05
0.041460045     2.5191915318250014e-05
0.0415904225     2.519192445449313e-05
0.0417208     2.5191933619426746e-05
0.041851177499999996     2.5191942813050907e-05
0.041981555     2.519195203536565e-05
0.0421119325     2.5191961286371044e-05
0.04224231     2.5191970566067125e-05
0.0423726875     2.5191979874453956e-05
0.042503065     2.5191989211531573e-05
0.0426334425     2.5191998577300045e-05
0.04276382     2.5192007971759407e-05
0.0428941975     2.5192017394909713e-05
0.043024574999999995     2.5192026846751017e-05
0.043154952499999996     2.519203632728337e-05
0.04328533     2.519204583650683e-05
0.0434157075     2.519205537442143e-05
0.043546085     2.519206494102723e-05
0.0436764625     2.5192074536324296e-05
0.04380684     2.5192084160312652e-05
0.0439372175     2.519209381299238e-05
0.044067595     2.5192103494363516e-05
0.0441979725     2.5192113204426104e-05
0.044328349999999996     2.519212294318022e-05
0.044458727499999996     2.5192132710625904e-05
0.044589105     2.51921425067632e-05
0.0447194825     2.5192152331592173e-05
0.04484986     2.5192162185112883e-05
0.0449802375     2.5192172067325356e-05
0.045110615     2.519218197822967e-05
0.0452409925     2.5192191917825875e-05
0.04537137     2.519220188611402e-05
0.0455017475     2.5192211883094158e-05
0.045632124999999996     2.5192221908766348e-05
0.045762502499999996     2.519223196313064e-05
0.04589288     2.5192242046187088e-05
0.0460232575     2.5192252157935752e-05
0.046153635     2.5192262298376682e-05
0.0462840125     2.5192272467509928e-05
0.04641439     2.5192282665335554e-05
0.0465447675     2.5192292891853615e-05
0.046675145     2.5192303147064165e-05
0.0468055225     2.5192313430967255e-05
0.046935899999999996     2.519232374356294e-05
0.047066277499999996     2.5192334084851287e-05
0.047196655     2.5192344454832342e-05
0.0473270325     2.5192354853506167e-05
0.04745741     2.5192365280872802e-05
0.0475877875     2.5192375736932323e-05
0.047718165     2.519238622168478e-05
0.0478485425     2.5192396735130224e-05
0.04797892     2.519240727726873e-05
0.0481092975     2.5192417848100344e-05
0.048239674999999996     2.5192428447625108e-05
0.048370052499999996     2.5192439075843093e-05
0.04850043     2.5192449732754362e-05
0.0486308075     2.519246041835897e-05
0.048761185     2.519247113265697e-05
0.0488915625     2.5192481875648425e-05
0.04902194     2.5192492647333384e-05
0.0491523175     2.5192503447711917e-05
0.049282695     2.5192514276784067e-05
0.0494130725     2.5192525134549904e-05
0.049543449999999996     2.519253602100949e-05
0.049673827499999997     2.519254693616288e-05
0.049804205     2.519255788001013e-05
0.0499345825     2.51925688525513e-05
0.05006496     2.519257985378645e-05
0.0501953375     2.519259088371565e-05
0.050325715     2.5192601942338942e-05
0.0504560925     2.5192613029656388e-05
0.05058647     2.519262414566806e-05
0.050716847499999995     2.5192635290374013e-05
0.050847224999999996     2.5192646463774306e-05
0.0509776025     2.5192657665868994e-05
0.05110798     2.519266889665815e-05
0.0512383575     2.5192680156141825e-05
0.051368735     2.5192691444320083e-05
0.0514991125     2.5192702761192984e-05
0.05162949     2.519271410676059e-05
0.0517598675     2.5192725481022965e-05
0.051890245     2.519273688398017e-05
0.052020622499999995     2.5192748315632257e-05
0.052150999999999996     2.51927597759793e-05
0.0522813775     2.5192771265021354e-05
0.052411755     2.5192782782758486e-05
0.0525421325     2.519279432919076e-05
0.05267251     2.519280590431823e-05
0.0528028875     2.5192817508140964e-05
0.052933265     2.5192829140659023e-05
0.0530636425     2.519284080187247e-05
0.05319402     2.5192852491781372e-05
0.053324397499999995     2.5192864210385795e-05
0.053454774999999996     2.519287595768579e-05
0.0535851525     2.519288773368143e-05
0.05371553     2.5192899538372774e-05
0.0538459075     2.519291137175989e-05
0.053976285     2.5192923233842836e-05
0.0541066625     2.519293512462168e-05
0.05423704     2.5192947044096497e-05
0.0543674175     2.5192958992267326e-05
0.054497795     2.5192970969134253e-05
0.054628172499999995     2.5192982974697345e-05
0.054758549999999996     2.519299500895664e-05
0.0548889275     2.519300707191224e-05
0.055019305     2.5193019163564183e-05
0.0551496825     2.519303128391254e-05
0.05528006     2.5193043432957383e-05
0.0554104375     2.5193055610698776e-05
0.055540815     2.5193067817136785e-05
0.0556711925     2.519308005227147e-05
0.05580157     2.5193092316102903e-05
0.055931947499999995     2.519310460863115e-05
0.056062324999999996     2.519311692985628e-05
0.0561927025     2.5193129279778354e-05
0.05632308     2.519314165839744e-05
0.0564534575     2.5193154065713597e-05
0.056583835     2.5193166501726913e-05
0.0567142125     2.519317896643744e-05
0.05684459     2.519319145984525e-05
0.0569749675     2.519320398195041e-05
0.057105345     2.519321653275299e-05
0.057235722499999996     2.5193229112253042e-05
0.057366099999999996     2.519324172045066e-05
0.0574964775     2.5193254357345896e-05
0.057626855     2.5193267022938826e-05
0.0577572325     2.519327971722951e-05
0.05788761     2.5193292440218018e-05
0.0580179875     2.5193305191904423e-05
0.058148365     2.5193317972288796e-05
0.0582787425     2.51933307813712e-05
0.058409119999999995     2.5193343619151712e-05
0.058539497499999996     2.5193356485630397e-05
0.058669874999999996     2.519336938080732e-05
0.0588002525     2.5193382304682558e-05
0.05893063     2.5193395257256176e-05
0.0590610075     2.519340823852825e-05
0.059191385     2.519342124849884e-05
0.0593217625     2.519343428716803e-05
0.05945214     2.5193447354535883e-05
0.0595825175     2.5193460450602465e-05
0.059712894999999995     2.5193473575367853e-05
0.059843272499999996     2.5193486728832126e-05
0.059973649999999996     2.519349991099533e-05
0.0601040275     2.519351312185757e-05
0.060234405     2.5193526361418892e-05
0.0603647825     2.5193539629679375e-05
0.06049516     2.5193552926639093e-05
0.0606255375     2.5193566252298114e-05
0.060755915     2.519357960665651e-05
0.0608862925     2.519359298971436e-05
0.061016669999999995     2.5193606401471735e-05
0.061147047499999996     2.5193619841928697e-05
0.061277424999999996     2.519363331108534e-05
0.0614078025     2.5193646808941708e-05
0.06153818     2.51936603354979e-05
0.0616685575     2.519367389075397e-05
0.061798935     2.519368747471001e-05
0.0619293125     2.519370108736608e-05
0.06205969     2.5193714728722256e-05
0.0621900675     2.519372839877861e-05
0.062320444999999995     2.5193742097535228e-05
0.062450822499999996     2.5193755824992164e-05
0.0625812     2.5193769581149506e-05
0.0627115775     2.5193783366007334e-05
0.062841955     2.5193797179565707e-05
0.06297233249999999     2.5193811021824718e-05
0.06310270999999999     2.5193824892784414e-05
0.0632330875     2.51938387924449e-05
0.063363465     2.5193852720806232e-05
0.0634938425     2.519386667786849e-05
0.06362422     2.5193880663631755e-05
0.0637545975     2.5193894678096095e-05
0.063884975     2.5193908721261597e-05
0.0640153525     2.519392279312833e-05
