Energy[eV]     Absorp.[arb.units]
0.0     2.060150572638268e-05
0.00010403700000000001     2.060150573649619e-05
0.00020807400000000001     2.0601505766836738e-05
0.000312111     2.0601505817404317e-05
0.00041614800000000003     2.0601505888198934e-05
0.000520185     2.0601505979220573e-05
0.000624222     2.0601506090469247e-05
0.0007282590000000001     2.0601506221944952e-05
0.0008322960000000001     2.06015063736477e-05
0.000936333     2.0601506545577478e-05
0.00104037     2.0601506737734278e-05
0.001144407     2.060150695011813e-05
0.001248444     2.060150718272901e-05
0.001352481     2.060150743556693e-05
0.0014565180000000002     2.0601507708631892e-05
0.0015605550000000001     2.0601508001923894e-05
0.0016645920000000001     2.0601508315442935e-05
0.001768629     2.060150864918902e-05
0.001872666     2.0601509003162144e-05
0.0019767030000000002     2.0601509377362323e-05
0.00208074     2.0601509771789547e-05
0.002184777     2.0601510186443817e-05
0.002288814     2.0601510621325138e-05
0.002392851     2.0601511076433518e-05
0.002496888     2.0601511551768943e-05
0.002600925     2.0601512047331434e-05
0.002704962     2.0601512563120983e-05
0.0028089990000000004     2.0601513099137595e-05
0.0029130360000000004     2.0601513655381268e-05
0.0030170730000000003     2.0601514231852007e-05
0.0031211100000000003     2.060151482854982e-05
0.0032251470000000003     2.0601515445474695e-05
0.0033291840000000002     2.0601516082626654e-05
0.003433221     2.0601516740005692e-05
0.003537258     2.0601517417611813e-05
0.003641295     2.0601518115445002e-05
0.003745332     2.060151883350529e-05
0.003849369     2.0601519571792662e-05
0.0039534060000000005     2.0601520330307132e-05
0.004057443     2.0601521109048692e-05
0.00416148     2.060152190801736e-05
0.004265517     2.0601522727213126e-05
0.004369554     2.0601523566636004e-05
0.004473591000000001     2.0601524426285995e-05
0.004577628     2.0601525306163092e-05
0.004681665000000001     2.0601526206267305e-05
0.004785702     2.0601527126598652e-05
0.004889739000000001     2.060152806715712e-05
0.004993776     2.0601529027942724e-05
0.0050978130000000005     2.0601530008955457e-05
0.00520185     2.0601531010195326e-05
0.0053058870000000005     2.0601532031662353e-05
0.005409924     2.0601533073356512e-05
0.005513961     2.060153413527784e-05
0.005617998000000001     2.060153521742632e-05
0.005722035     2.0601536319801966e-05
0.005826072000000001     2.0601537442404767e-05
0.005930109     2.0601538585234755e-05
0.006034146000000001     2.0601539748291914e-05
0.006138183     2.0601540931576263e-05
0.006242220000000001     2.0601542135087793e-05
0.006346257     2.060154335882652e-05
0.0064502940000000005     2.0601544602792436e-05
0.006554331     2.0601545866985573e-05
0.0066583680000000004     2.0601547151405914e-05
0.006762405000000001     2.0601548456053466e-05
0.006866442     2.0601549780928243e-05
0.006970479000000001     2.0601551126030255e-05
0.007074516     2.0601552491359494e-05
0.007178553000000001     2.0601553876915972e-05
0.00728259     2.0601555282699702e-05
0.007386627000000001     2.060155670871068e-05
0.007490664     2.060155815494892e-05
0.007594701000000001     2.060155962141442e-05
0.007698738     2.06015611081072e-05
0.0078027750000000005     2.0601562615027247e-05
0.007906812000000001     2.0601564142174596e-05
0.008010849     2.060156568954922e-05
0.008114886     2.0601567257151152e-05
0.008218923000000001     2.0601568844980385e-05
0.00832296     2.0601570453036935e-05
0.008426997     2.0601572081320804e-05
0.008531034     2.0601573729832e-05
0.008635071000000001     2.0601575398570534e-05
0.008739108     2.0601577087536403e-05
0.008843145     2.0601578796729625e-05
0.008947182000000001     2.0601580526150204e-05
0.009051219000000001     2.060158227579815e-05
0.009155256     2.060158404567347e-05
0.009259293     2.060158583577617e-05
0.009363330000000001     2.060158764610626e-05
0.009467367     2.0601589476663745e-05
0.009571404     2.0601591327448624e-05
0.009675441     2.0601593198460935e-05
0.009779478000000001     2.060159508970066e-05
0.009883515     2.0601597001167812e-05
0.009987552     2.06015989328624e-05
0.010091589000000002     2.0601600884784446e-05
0.010195626000000001     2.060160285693394e-05
0.010299663     2.06016048493109e-05
0.0104037     2.060160686191534e-05
0.010507737000000001     2.0601608894747253e-05
0.010611774000000001     2.0601610947806666e-05
0.010715811     2.0601613021093575e-05
0.010819848     2.0601615114607993e-05
0.010923885000000001     2.0601617228349928e-05
0.011027922     2.06016193623194e-05
0.011131959     2.060162151651641e-05
0.011235996000000002     2.060162369094096e-05
0.011340033000000001     2.0601625885593073e-05
0.01144407     2.060162810047275e-05
0.011548107     2.0601630335580015e-05
0.011652144000000001     2.060163259091486e-05
0.011756181000000001     2.06016348664773e-05
0.011860218     2.060163716226735e-05
0.011964255     2.0601639478285017e-05
0.012068292000000001     2.060164181453031e-05
0.012172329     2.060164417100325e-05
0.012276366     2.0601646547703828e-05
0.012380403000000002     2.060164894463207e-05
0.012484440000000001     2.060165136178798e-05
0.012588477     2.0601653799171582e-05
0.012692514     2.060165625678287e-05
0.012796551000000001     2.0601658734621854e-05
0.012900588000000001     2.0601661232688556e-05
0.013004625     2.060166375098298e-05
0.013108662     2.060166628950515e-05
0.013212699000000001     2.060166884825507e-05
0.013316736000000001     2.0601671427232733e-05
0.013420773     2.060167402643818e-05
0.013524810000000002     2.060167664587141e-05
0.013628847000000001     2.060167928553243e-05
0.013732884     2.060168194542125e-05
0.013836921     2.060168462553789e-05
0.013940958000000002     2.0601687325882368e-05
0.014044995000000001     2.060169004645468e-05
0.014149032     2.0601692787254845e-05
0.014253069     2.0601695548282874e-05
0.014357106000000001     2.060169832953879e-05
0.014461143000000001     2.06017011310226e-05
0.01456518     2.06017039527343e-05
0.014669217000000002     2.0601706794673923e-05
0.014773254000000001     2.0601709656841478e-05
0.014877291     2.0601712539236965e-05
0.014981328     2.0601715441860413e-05
0.015085365000000002     2.0601718364711823e-05
0.015189402000000001     2.060172130779122e-05
0.015293439     2.0601724271098602e-05
0.015397476     2.0601727254633998e-05
0.015501513000000001     2.060173025839741e-05
0.015605550000000001     2.060173328238886e-05
0.015709587     2.0601736326608347e-05
0.015813624000000002     2.06017393910559e-05
0.015917661     2.0601742475731533e-05
0.016021698     2.0601745580635244e-05
0.016125735000000002     2.060174870576706e-05
0.016229772     2.0601751851126992e-05
0.016333809     2.0601755016715053e-05
0.016437846000000002     2.0601758202531258e-05
0.016541883     2.0601761408575625e-05
0.01664592     2.0601764634848156e-05
0.016749957000000003     2.0601767881348884e-05
0.016853994     2.0601771148077802e-05
0.016958031000000002     2.060177443503494e-05
0.017062068     2.0601777742220308e-05
0.017166105     2.060178106963393e-05
0.017270142000000002     2.0601784417275805e-05
0.017374179     2.0601787785145953e-05
0.017478216     2.060179117324439e-05
0.017582253000000003     2.0601794581571134e-05
0.01768629     2.0601798010126195e-05
0.017790327     2.06018014589096e-05
0.017894364000000003     2.0601804927921345e-05
0.017998401     2.060180841716147e-05
0.018102438000000002     2.060181192662996e-05
0.018206475     2.0601815456326858e-05
0.018310512     2.0601819006252176e-05
0.018414549000000002     2.0601822576405917e-05
0.018518586     2.0601826166788093e-05
0.018622623     2.060182977739874e-05
0.018726660000000003     2.0601833408237866e-05
0.018830697     2.060183705930548e-05
0.018934734     2.0601840730601614e-05
0.019038771000000003     2.0601844422126266e-05
0.019142808     2.0601848133879457e-05
0.019246845000000002     2.0601851865861215e-05
0.019350882     2.0601855618071546e-05
0.019454919     2.060185939051047e-05
0.019558956000000002     2.0601863183178002e-05
0.019662993     2.0601866996074158e-05
0.01976703     2.060187082919896e-05
0.019871067000000003     2.0601874682552426e-05
0.019975104     2.0601878556134562e-05
0.020079141000000002     2.06018824499454e-05
0.020183178000000003     2.060188636398495e-05
0.020287215     2.0601890298253226e-05
0.020391252000000002     2.060189425275025e-05
0.020495289     2.0601898227476036e-05
0.020599326     2.0601902222430614e-05
0.020703363000000002     2.0601906237613992e-05
0.0208074     2.0601910273026177e-05
0.020911437     2.060191432866721e-05
0.021015474000000003     2.0601918404537094e-05
0.021119511     2.0601922500635852e-05
0.021223548000000002     2.0601926616963496e-05
0.021327585000000003     2.0601930753520055e-05
0.021431622     2.0601934910305536e-05
0.021535659000000002     2.060193908731997e-05
0.021639696     2.0601943284563362e-05
0.021743733     2.0601947502035742e-05
0.021847770000000002     2.060195173973712e-05
0.021951807     2.0601955997667532e-05
0.022055844     2.0601960275826973e-05
0.022159881000000003     2.0601964574215478e-05
0.022263918     2.0601968892833058e-05
0.022367955000000002     2.0601973231679743e-05
0.022471992000000003     2.060197759075554e-05
0.022576029     2.060198197006048e-05
0.022680066000000002     2.0601986369594568e-05
0.022784103     2.060199078935783e-05
0.02288814     2.06019952293503e-05
0.022992177000000003     2.0601999689571983e-05
0.023096214     2.0602004170022892e-05
0.023200251     2.0602008670703058e-05
0.023304288000000003     2.0602013191612503e-05
0.023408325     2.0602017732751252e-05
0.023512362000000002     2.0602022294119306e-05
0.023616399000000003     2.06020268757167e-05
0.023720436     2.0602031477543452e-05
0.023824473000000002     2.0602036099599584e-05
0.02392851     2.060204074188511e-05
0.024032547     2.0602045404400055e-05
0.024136584000000003     2.060205008714443e-05
0.024240621     2.0602054790118277e-05
0.024344658     2.0602059513321605e-05
0.024448695000000003     2.0602064256754438e-05
0.024552732     2.0602069020416783e-05
0.024656769000000002     2.060207380430868e-05
0.024760806000000003     2.0602078608430146e-05
0.024864843     2.0602083432781195e-05
0.024968880000000002     2.0602088277361854e-05
0.025072917     2.0602093142172147e-05
0.025176954     2.060209802721209e-05
0.025280991000000003     2.0602102932481715e-05
0.025385028     2.0602107857981024e-05
0.025489065     2.0602112803710058e-05
0.025593102000000003     2.0602117769668827e-05
0.025697139     2.060212275585737e-05
0.025801176000000002     2.060212776227568e-05
0.025905213000000003     2.060213278892381e-05
0.02600925     2.0602137835801766e-05
0.026113287000000002     2.060214290290957e-05
0.026217324     2.0602147990247254e-05
0.026321361     2.060215309781483e-05
0.026425398000000003     2.060215822561234e-05
0.026529435     2.060216337363978e-05
0.026633472000000002     2.060216854189719e-05
0.026737509000000003     2.060217373038459e-05
0.026841546     2.0602178939101997e-05
0.026945583000000002     2.060218416804944e-05
0.027049620000000003     2.0602189417226943e-05
0.027153657     2.060219468663453e-05
0.027257694000000002     2.0602199976272223e-05
0.027361731     2.060220528614005e-05
0.027465768     2.0602210616238022e-05
0.027569805000000003     2.060221596656617e-05
0.027673842     2.0602221337124525e-05
0.027777879000000002     2.0602226727913103e-05
0.027881916000000003     2.060223213893192e-05
0.027985953     2.060223757018102e-05
0.028089990000000002     2.0602243021660413e-05
0.028194027000000003     2.0602248493370134e-05
0.028298064     2.0602253985310194e-05
0.028402101000000003     2.0602259497480626e-05
0.028506138     2.060226502988145e-05
0.028610175     2.0602270582512695e-05
0.028714212000000003     2.0602276155374393e-05
0.028818249     2.060228174846655e-05
0.028922286000000002     2.06022873617892e-05
0.029026323000000003     2.0602292995342374e-05
0.02913036     2.06022986491261e-05
0.029234397000000002     2.0602304323140384e-05
0.029338434000000004     2.0602310017385268e-05
0.029442471     2.0602315731860768e-05
0.029546508000000003     2.0602321466566915e-05
0.029650545     2.0602327221503732e-05
0.029754582     2.0602332996671257e-05
0.029858619000000003     2.0602338792069496e-05
0.029962656     2.0602344607698483e-05
0.030066693000000002     2.0602350443558247e-05
0.030170730000000003     2.060235629964881e-05
0.030274767     2.0602362175970194e-05
0.030378804000000002     2.0602368072522443e-05
0.030482841000000004     2.060237398930557e-05
0.030586878     2.060237992631959e-05
0.030690915000000003     2.0602385883564553e-05
0.030794952     2.0602391861040477e-05
0.030898989     2.060239785874738e-05
0.031003026000000003     2.0602403876685303e-05
0.031107063     2.0602409914854258e-05
0.031211100000000002     2.060241597325428e-05
0.031315137     2.0602422051885398e-05
0.031419174     2.0602428150747637e-05
0.031523211     2.0602434269841015e-05
0.031627248000000004     2.0602440409165578e-05
0.031731285000000005     2.0602446568721343e-05
0.031835322     2.0602452748508328e-05
0.031939359     2.060245894852658e-05
0.032043396     2.0602465168776108e-05
0.032147433     2.060247140925696e-05
0.032251470000000004     2.0602477669969144e-05
0.032355507000000006     2.06024839509127e-05
0.032459544     2.060249025208765e-05
0.032563581     2.060249657349403e-05
0.032667618     2.0602502915131852e-05
0.032771655000000004     2.0602509277001166e-05
0.032875692000000005     2.060251565910199e-05
0.032979729     2.0602522061434346e-05
0.033083766     2.060252848399826e-05
0.033187803     2.060253492679378e-05
0.03329184     2.0602541389820927e-05
0.033395877000000004     2.060254787307973e-05
0.033499914000000006     2.06025543765702e-05
0.033603951     2.0602560900292386e-05
0.033707988     2.060256744424632e-05
0.033812025     2.0602574008432014e-05
0.033916062000000004     2.0602580592849514e-05
0.034020099000000005     2.0602587197498833e-05
0.034124136     2.0602593822380012e-05
0.034228173     2.060260046749308e-05
0.03433221     2.0602607132838067e-05
0.034436247     2.0602613818414998e-05
0.034540284000000004     2.060262052422391e-05
0.034644321000000006     2.0602627250264814e-05
0.034748358     2.0602633996537768e-05
0.034852395     2.0602640763042774e-05
0.034956432     2.0602647549779894e-05
0.035060469000000004     2.060265435674913e-05
0.035164506000000005     2.060266118395052e-05
0.035268543     2.0602668031384103e-05
0.03537258     2.0602674899049905e-05
0.035476617     2.060268178694795e-05
0.035580654     2.0602688695078278e-05
0.035684691000000004     2.0602695623440916e-05
0.035788728000000006     2.06027025720359e-05
0.035892765     2.060270954086325e-05
0.035996802     2.0602716529923e-05
0.036100839     2.0602723539215192e-05
0.036204876000000004     2.060273056873984e-05
0.036308913000000005     2.0602737618496997e-05
0.03641295     2.0602744688486674e-05
0.036516987     2.0602751778708913e-05
0.036621024     2.0602758889163746e-05
0.036725061     2.06027660198512e-05
0.036829098000000005     2.060277317077131e-05
0.036933135000000006     2.0602780341924108e-05
0.037037172     2.0602787533309623e-05
0.037141209     2.060279474492789e-05
0.037245246     2.0602801976778945e-05
0.037349283000000004     2.0602809228862814e-05
0.037453320000000005     2.060281650117953e-05
0.037557357     2.0602823793729118e-05
0.037661394     2.0602831106511635e-05
0.037765431     2.060283843952709e-05
0.037869468     2.0602845792775522e-05
0.037973505000000005     2.0602853166256962e-05
0.038077542000000006     2.0602860559971455e-05
0.038181579     2.060286797391902e-05
0.038285616     2.06028754080997e-05
0.038389653     2.060288286251352e-05
0.038493690000000004     2.0602890337160514e-05
0.038597727000000005     2.060289783204072e-05
0.038701764     2.0602905347154172e-05
0.038805801     2.0602912882500895e-05
0.038909838     2.060292043808093e-05
0.039013875     2.0602928013894307e-05
0.039117912000000005     2.060293560994107e-05
0.039221949000000006     2.0602943226221243e-05
0.039325986     2.0602950862734867e-05
0.039430023     2.060295851948196e-05
0.03953406     2.0602966196462573e-05
0.039638097000000004     2.0602973893676736e-05
0.039742134000000005     2.0602981611124477e-05
0.039846171     2.0602989348805842e-05
0.039950208     2.0602997106720853e-05
0.040054245     2.0603004884869553e-05
0.040158282000000003     2.0603012683251973e-05
0.040262319000000005     2.0603020501868153e-05
0.040366356000000006     2.0603028340718118e-05
0.040470393     2.060303619980191e-05
0.04057443     2.0603044079119568e-05
0.040678467     2.0603051978671126e-05
0.040782504000000004     2.0603059898456603e-05
0.040886541000000005     2.0603067838476057e-05
0.040990578     2.0603075798729502e-05
0.041094615     2.0603083779216995e-05
0.041198652     2.060309177993856e-05
0.041302689000000004     2.0603099800894226e-05
0.041406726000000005     2.0603107842084044e-05
0.041510763000000006     2.0603115903508043e-05
0.0416148     2.060312398516626e-05
0.041718837     2.0603132087058724e-05
0.041822874     2.0603140209185478e-05
0.041926911000000004     2.060314835154656e-05
0.042030948000000005     2.0603156514142e-05
0.042134985     2.060316469697184e-05
0.042239022     2.0603172900036118e-05
0.042343059     2.0603181123334866e-05
0.042447096000000004     2.0603189366868112e-05
0.042551133000000005     2.0603197630635912e-05
0.042655170000000006     2.0603205914638292e-05
0.042759207     2.0603214218875293e-05
0.042863244     2.0603222543346946e-05
0.042967281     2.0603230888053284e-05
0.043071318000000004     2.060323925299437e-05
0.043175355000000006     2.060324763817021e-05
0.043279392     2.0603256043580858e-05
0.043383429     2.0603264469226347e-05
0.043487466     2.0603272915106715e-05
0.043591503000000004     2.0603281381222002e-05
0.043695540000000005     2.060328986757225e-05
0.043799577000000006     2.0603298374157483e-05
0.043903614     2.0603306900977744e-05
0.044007651     2.060331544803308e-05
0.044111688     2.0603324015323526e-05
0.044215725000000004     2.0603332602849114e-05
0.044319762000000006     2.060334121060989e-05
0.044423799     2.0603349838605875e-05
0.044527836     2.0603358486837138e-05
0.044631873     2.0603367155303687e-05
0.044735910000000004     2.060337584400558e-05
0.044839947000000005     2.0603384552942843e-05
0.044943984000000006     2.060339328211553e-05
0.045048021     2.060340203152367e-05
0.045152058     2.0603410801167306e-05
0.045256095     2.060341959104647e-05
0.045360132000000004     2.0603428401161204e-05
0.045464169000000006     2.060343723151155e-05
0.045568206     2.060344608209756e-05
0.045672243     2.0603454952919243e-05
0.04577628     2.060346384397667e-05
0.045880317000000004     2.060347275526985e-05
0.045984354000000005     2.0603481686798852e-05
0.046088391000000006     2.0603490638563698e-05
0.046192428     2.0603499610564443e-05
0.046296465     2.0603508602801102e-05
0.046400502     2.0603517615273735e-05
0.046504539000000004     2.060352664798238e-05
0.046608576000000006     2.0603535700927075e-05
0.046712613     2.0603544774107856e-05
0.04681665     2.0603553867524773e-05
0.046920687     2.0603562981177856e-05
0.047024724000000004     2.060357211506716e-05
0.047128761000000005     2.060358126919271e-05
0.047232798000000006     2.0603590443554556e-05
0.047336835     2.0603599638152736e-05
0.047440872     2.060360885298729e-05
0.047544909     2.0603618088058263e-05
0.047648946000000005     2.060362734336569e-05
0.047752983000000006     2.0603636618909623e-05
0.04785702     2.0603645914690084e-05
0.047961057     2.0603655230707144e-05
0.048065094     2.0603664566960814e-05
0.048169131000000004     2.060367392345116e-05
0.048273168000000005     2.0603683300178204e-05
0.048377205000000006     2.0603692697141996e-05
0.048481242     2.060370211434259e-05
0.048585279     2.0603711551780004e-05
0.048689316     2.0603721009454305e-05
