Energy[eV]     Absorp.[arb.units]
0.0     1.2817396550544833e-05
0.0001303775     1.2817396557600894e-05
0.000260755     1.281739657876908e-05
0.0003911325     1.2817396614049379e-05
0.00052151     1.2817396663441803e-05
0.0006518875     1.281739672694635e-05
0.000782265     1.2817396804563023e-05
0.0009126424999999999     1.2817396896291812e-05
0.00104302     1.2817397002132726e-05
0.0011733975     1.2817397122085763e-05
0.001303775     1.2817397256150926e-05
0.0014341525     1.281739740432821e-05
0.00156453     1.2817397566617622e-05
0.0016949075     1.2817397743019158e-05
0.0018252849999999998     1.2817397933532826e-05
0.0019556625     1.2817398138158624e-05
0.00208604     1.2817398356896544e-05
0.0022164174999999998     1.2817398589746603e-05
0.002346795     1.2817398836708784e-05
0.0024771725     1.2817399097783104e-05
0.00260755     1.2817399372969558e-05
0.0027379275     1.2817399662268147e-05
0.002868305     1.2817399965678877e-05
0.0029986825     1.2817400283201744e-05
0.00312906     1.281740061483675e-05
0.0032594374999999997     1.2817400960583901e-05
0.003389815     1.2817401320443196e-05
0.0035201925     1.281740169441463e-05
0.0036505699999999997     1.2817402082498223e-05
0.0037809475     1.2817402484693958e-05
0.003911325     1.281740290100185e-05
0.0040417025     1.2817403331421892e-05
0.00417208     1.2817403775954095e-05
0.0043024575     1.2817404234598454e-05
0.0044328349999999996     1.2817404707354974e-05
0.0045632125     1.281740519422366e-05
0.00469359     1.281740569520451e-05
0.0048239675     1.2817406210297529e-05
0.004954345     1.2817406739502721e-05
0.0050847225     1.2817407282820089e-05
0.0052151     1.281740784024963e-05
0.0053454775     1.2817408411791353e-05
0.005475855     1.2817408997445259e-05
0.0056062325     1.2817409597211357e-05
0.00573661     1.2817410211089637e-05
0.0058669874999999995     1.2817410839080108e-05
0.005997365     1.2817411481182782e-05
0.0061277425     1.2817412137397651e-05
0.00625812     1.2817412807724725e-05
0.0063884975     1.2817413492164002e-05
0.0065188749999999995     1.281741419071549e-05
0.0066492525     1.2817414903379194e-05
0.00677963     1.2817415630155109e-05
0.0069100075     1.2817416371043251e-05
0.007040385     1.2817417126043614e-05
0.0071707624999999995     1.2817417895156204e-05
0.007301139999999999     1.2817418678381032e-05
0.0074315175     1.2817419475718093e-05
0.007561895     1.2817420287167396e-05
0.0076922725     1.2817421112728943e-05
0.00782265     1.2817421952402742e-05
0.0079530275     1.281742280618879e-05
0.008083405     1.2817423674087105e-05
0.008213782499999999     1.2817424556097676e-05
0.00834416     1.2817425452220515e-05
0.0084745375     1.2817426362455625e-05
0.008604915     1.2817427286803016e-05
0.0087352925     1.2817428225262685e-05
0.008865669999999999     1.2817429177834645e-05
0.0089960475     1.281743014451889e-05
0.009126425     1.2817431125315435e-05
0.0092568025     1.2817432120224285e-05
0.00938718     1.2817433129245441e-05
0.0095175575     1.2817434152378906e-05
0.009647935     1.2817435189624691e-05
0.0097783125     1.2817436240982797e-05
0.00990869     1.2817437306453234e-05
0.0100390675     1.2817438386036e-05
0.010169445     1.281743947973111e-05
0.0102998225     1.2817440587538562e-05
0.0104302     1.2817441709458373e-05
0.0105605775     1.2817442845490538e-05
0.010690955     1.2817443995635062e-05
0.0108213325     1.2817445159891957e-05
0.01095171     1.2817446338261226e-05
0.011082087499999999     1.2817447530742876e-05
0.011212465     1.2817448737336914e-05
0.0113428425     1.2817449958043348e-05
0.01147322     1.2817451192862175e-05
0.0116035975     1.2817452441793414e-05
0.011733974999999999     1.2817453704837068e-05
0.0118643525     1.2817454981993137e-05
0.01199473     1.2817456273261636e-05
0.0121251075     1.2817457578642568e-05
0.012255485     1.2817458898135941e-05
0.012385862499999999     1.281746023174176e-05
0.01251624     1.281746157946003e-05
0.0126466175     1.2817462941290763e-05
0.012776995     1.2817464317233965e-05
0.0129073725     1.2817465707289641e-05
0.013037749999999999     1.28174671114578e-05
0.0131681275     1.2817468529738445e-05
0.013298505     1.2817469962131591e-05
0.0134288825     1.281747140863724e-05
0.01355926     1.2817472869255401e-05
0.013689637499999999     1.2817474343986083e-05
0.013820015     1.2817475832829291e-05
0.0139503925     1.2817477335785035e-05
0.01408077     1.2817478852853323e-05
0.0142111475     1.281748038403416e-05
0.014341524999999999     1.2817481929327558e-05
0.0144719025     1.2817483488733524e-05
0.014602279999999999     1.2817485062252063e-05
0.0147326575     1.2817486649883185e-05
0.014863035     1.2817488251626901e-05
0.014993412499999999     1.281748986748322e-05
0.01512379     1.281749149745214e-05
0.015254167499999999     1.281749314153368e-05
0.015384545     1.2817494799727849e-05
0.0155149225     1.281749647203465e-05
0.0156453     1.281749815845409e-05
0.015775677499999998     1.2817499858986186e-05
0.015906055     1.2817501573630947e-05
0.0160364325     1.2817503302388374e-05
0.01616681     1.2817505045258476e-05
0.0162971875     1.281750680224127e-05
0.016427564999999998     1.2817508573336758e-05
0.0165579425     1.2817510358544955e-05
0.01668832     1.2817512157865864e-05
0.0168186975     1.2817513971299502e-05
0.016949075     1.2817515798845873e-05
0.017079452499999998     1.2817517640504988e-05
0.01720983     1.2817519496276862e-05
0.0173402075     1.281752136616149e-05
0.017470585     1.2817523250158896e-05
0.0176009625     1.2817525148269084e-05
0.017731339999999998     1.2817527060492065e-05
0.0178617175     1.2817528986827848e-05
0.017992095     1.2817530927276448e-05
0.0181224725     1.2817532881837865e-05
0.01825285     1.281753485051212e-05
0.018383227499999998     1.2817536833299213e-05
0.018513605     1.2817538830199166e-05
0.0186439825     1.2817540841211983e-05
0.01877436     1.2817542866337672e-05
0.0189047375     1.2817544905576247e-05
0.019035115     1.2817546958927717e-05
0.0191654925     1.2817549026392096e-05
0.01929587     1.2817551107969392e-05
0.0194262475     1.2817553203659615e-05
0.019556625     1.281755531346278e-05
0.0196870025     1.281755743737889e-05
0.01981738     1.2817559575407969e-05
0.0199477575     1.2817561727550015e-05
0.020078135     1.2817563893805047e-05
0.0202085125     1.2817566074173072e-05
0.02033889     1.281756826865411e-05
0.0204692675     1.281757047724816e-05
0.020599645     1.2817572699955241e-05
0.0207300225     1.2817574936775361e-05
0.0208604     1.2817577187708538e-05
0.0209907775     1.2817579452754779e-05
0.021121155     1.2817581731914096e-05
0.0212515325     1.2817584025186501e-05
0.02138191     1.2817586332572005e-05
0.021512287499999998     1.281758865407062e-05
0.021642665     1.2817590989682369e-05
0.0217730425     1.2817593339407245e-05
0.02190342     1.2817595703245275e-05
0.0220337975     1.2817598081196463e-05
0.022164174999999998     1.2817600473260824e-05
0.0222945525     1.2817602879438378e-05
0.02242493     1.2817605299729125e-05
0.0225553075     1.2817607734133086e-05
0.022685685     1.281761018265027e-05
0.022816062499999998     1.2817612645280687e-05
0.02294644     1.281761512202436e-05
0.0230768175     1.2817617612881296e-05
0.023207195     1.2817620117851504e-05
0.0233375725     1.2817622636935004e-05
0.023467949999999998     1.2817625170131801e-05
0.0235983275     1.281762771744192e-05
0.023728705     1.2817630278865365e-05
0.0238590825     1.2817632854402149e-05
0.02398946     1.2817635444052294e-05
0.024119837499999998     1.2817638047815804e-05
0.024250215     1.2817640665692699e-05
0.0243805925     1.2817643297682985e-05
0.02451097     1.2817645943786685e-05
0.0246413475     1.2817648604003808e-05
0.024771724999999998     1.281765127833437e-05
0.0249021025     1.2817653966778384e-05
0.02503248     1.2817656669335862e-05
0.0251628575     1.2817659386006816e-05
0.025293235     1.2817662116791273e-05
0.025423612499999998     1.2817664861689232e-05
0.02555399     1.2817667620700715e-05
0.0256843675     1.2817670393825732e-05
0.025814745     1.2817673181064308e-05
0.0259451225     1.2817675982416445e-05
0.026075499999999998     1.2817678797882162e-05
0.0262058775     1.2817681627461474e-05
0.026336255     1.28176844711544e-05
0.0264666325     1.281768732896095e-05
0.02659701     1.2817690200881138e-05
0.026727387499999998     1.281769308691498e-05
0.026857765     1.2817695987062497e-05
0.0269881425     1.2817698901323696e-05
0.02711852     1.2817701829698598e-05
0.0272488975     1.281770477218721e-05
0.027379274999999998     1.2817707728789553e-05
0.0275096525     1.281771069950565e-05
0.02764003     1.2817713684335504e-05
0.0277704075     1.2817716683279137e-05
0.027900785     1.2817719696336563e-05
0.028031162499999998     1.2817722723507796e-05
0.02816154     1.2817725764792852e-05
0.0282919175     1.2817728820191755e-05
0.028422295     1.2817731889704511e-05
0.0285526725     1.281773497333114e-05
0.028683049999999998     1.281773807107166e-05
0.0288134275     1.2817741182926082e-05
0.028943805     1.2817744308894428e-05
0.0290741825     1.2817747448976711e-05
0.029204559999999997     1.2817750603172947e-05
0.029334937499999998     1.2817753771483154e-05
0.029465315     1.2817756953907347e-05
0.0295956925     1.2817760150445545e-05
0.02972607     1.2817763361097762e-05
0.029856447499999998     1.2817766585864012e-05
0.029986824999999998     1.2817769824744325e-05
0.0301172025     1.2817773077738704e-05
0.03024758     1.281777634484717e-05
0.0303779575     1.2817779626069743e-05
0.030508334999999998     1.281778292140644e-05
0.030638712499999998     1.281778623085727e-05
0.03076909     1.281778955442226e-05
0.0308994675     1.2817792892101428e-05
0.031029845     1.281779624389478e-05
0.031160222499999998     1.2817799609802346e-05
0.0312906     1.2817802989824135e-05
0.0314209775     1.2817806383960171e-05
0.031551354999999996     1.281780979221047e-05
0.0316817325     1.2817813214575042e-05
0.03181211     1.2817816651053918e-05
0.0319424875     1.2817820101647106e-05
0.032072865     1.2817823566354629e-05
0.0322032425     1.2817827045176506e-05
0.03233362     1.2817830538112747e-05
0.0324639975     1.2817834045163383e-05
0.032594375     1.281783756632842e-05
0.0327247525     1.2817841101607882e-05
0.032855129999999996     1.2817844651001788e-05
0.0329855075     1.2817848214510158e-05
0.033115885     1.2817851792133002e-05
0.0332462625     1.2817855383870351e-05
0.03337664     1.2817858989722215e-05
0.0335070175     1.2817862609688617e-05
0.033637395     1.2817866243769572e-05
0.0337677725     1.2817869891965108e-05
0.03389815     1.281787355427523e-05
0.034028527499999996     1.281787723069997e-05
0.034158904999999996     1.2817880921239337e-05
0.0342892825     1.2817884625893357e-05
0.03441966     1.2817888344662048e-05
0.0345500375     1.2817892077545432e-05
0.034680415     1.2817895824543524e-05
0.0348107925     1.2817899585656342e-05
0.03494117     1.2817903360883911e-05
0.0350715475     1.2817907150226245e-05
0.035201925     1.2817910953683373e-05
0.035332302499999996     1.2817914771255304e-05
0.035462679999999996     1.2817918602942062e-05
0.0355930575     1.2817922448743674e-05
0.035723435     1.2817926308660152e-05
0.0358538125     1.2817930182691517e-05
0.03598419     1.281793407083779e-05
0.0361145675     1.281793797309899e-05
0.036244945     1.2817941889475144e-05
0.0363753225     1.2817945819966266e-05
0.0365057     1.2817949764572374e-05
0.036636077499999996     1.2817953723293497e-05
0.036766454999999997     1.2817957696129653e-05
0.0368968325     1.2817961683080859e-05
0.03702721     1.2817965684147137e-05
0.0371575875     1.281796969932851e-05
0.037287965     1.2817973728624998e-05
0.0374183425     1.2817977772036618e-05
0.03754872     1.28179818295634e-05
0.0376790975     1.281798590120536e-05
0.037809475     1.2817989986962517e-05
0.037939852499999996     1.2817994086834896e-05
0.03807023     1.2817998200822519e-05
0.0382006075     1.2818002328925403e-05
0.038330985     1.2818006471143576e-05
0.0384613625     1.2818010627477053e-05
0.03859174     1.2818014797925856e-05
0.0387221175     1.2818018982490017e-05
0.038852495     1.281802318116954e-05
0.0389828725     1.2818027393964465e-05
0.03911325     1.2818031620874804e-05
0.039243627499999996     1.2818035861900582e-05
0.039374005     1.2818040117041821e-05
0.0395043825     1.281804438629854e-05
0.03963476     1.281804866967077e-05
0.0397651375     1.2818052967158527e-05
0.039895515     1.2818057278761825e-05
0.0400258925     1.2818061604480704e-05
0.04015627     1.281806594431517e-05
0.0402866475     1.2818070298265263e-05
0.040417025     1.2818074666330988e-05
0.040547402499999996     1.2818079048512383e-05
0.04067778     1.2818083444809458e-05
0.0408081575     1.2818087855222246e-05
0.040938535     1.2818092279750764e-05
0.0410689125     1.2818096718395039e-05
0.04119929     1.281810117115509e-05
0.0413296675     1.2818105638030944e-05
0.041460045     1.2818110119022626e-05
0.0415904225     1.2818114614130151e-05
0.0417208     1.2818119123353551e-05
0.041851177499999996     1.281812364669285e-05
0.041981555     1.2818128184148063e-05
0.0421119325     1.2818132735719217e-05
0.04224231     1.281813730140634e-05
0.0423726875     1.2818141881209455e-05
0.042503065     1.2818146475128582e-05
0.0426334425     1.281815108316375e-05
0.04276382     1.2818155705314976e-05
0.0428941975     1.2818160341582293e-05
0.043024574999999995     1.281816499196572e-05
0.043154952499999996     1.2818169656465278e-05
0.04328533     1.2818174335081002e-05
0.0434157075     1.2818179027812904e-05
0.043546085     1.2818183734661014e-05
0.0436764625     1.2818188455625362e-05
0.04380684     1.2818193190705963e-05
0.0439372175     1.281819793990285e-05
0.044067595     1.2818202703216044e-05
0.0441979725     1.2818207480645566e-05
0.044328349999999996     1.2818212272191444e-05
0.044458727499999996     1.2818217077853712e-05
0.044589105     1.2818221897632378e-05
0.0447194825     1.2818226731527482e-05
0.04484986     1.2818231579539047e-05
0.0449802375     1.2818236441667086e-05
0.045110615     1.2818241317911637e-05
0.0452409925     1.2818246208272725e-05
0.04537137     1.281825111275037e-05
0.0455017475     1.2818256031344595e-05
0.045632124999999996     1.2818260964055436e-05
0.045762502499999996     1.2818265910882912e-05
0.04589288     1.281827087182705e-05
0.0460232575     1.2818275846887878e-05
0.046153635     1.2818280836065418e-05
0.0462840125     1.2818285839359699e-05
0.04641439     1.2818290856770745e-05
0.0465447675     1.2818295888298583e-05
0.046675145     1.2818300933943245e-05
0.0468055225     1.2818305993704746e-05
0.046935899999999996     1.2818311067583121e-05
0.047066277499999996     1.2818316155578393e-05
0.047196655     1.2818321257690594e-05
0.0473270325     1.2818326373919744e-05
0.04745741     1.2818331504265866e-05
0.0475877875     1.2818336648728998e-05
0.047718165     1.2818341807309163e-05
0.0478485425     1.2818346980006384e-05
0.04797892     1.2818352166820696e-05
0.0481092975     1.2818357367752117e-05
0.048239674999999996     1.2818362582800677e-05
0.048370052499999996     1.2818367811966402e-05
0.04850043     1.2818373055249323e-05
0.0486308075     1.2818378312649472e-05
0.048761185     1.2818383584166866e-05
0.0488915625     1.2818388869801536e-05
0.04902194     1.2818394169553513e-05
0.0491523175     1.2818399483422818e-05
0.049282695     1.2818404811409484e-05
0.0494130725     1.2818410153513537e-05
0.049543449999999996     1.2818415509735009e-05
0.049673827499999997     1.2818420880073926e-05
0.049804205     1.2818426264530309e-05
0.0499345825     1.2818431663104194e-05
0.05006496     1.2818437075795607e-05
0.0501953375     1.2818442502604583e-05
0.050325715     1.2818447943531136e-05
0.0504560925     1.2818453398575306e-05
0.05058647     1.2818458867737114e-05
0.050716847499999995     1.2818464351016595e-05
0.050847224999999996     1.2818469848413775e-05
0.0509776025     1.2818475359928678e-05
0.05110798     1.281848088556134e-05
0.0512383575     1.2818486425311792e-05
0.051368735     1.2818491979180053e-05
0.0514991125     1.2818497547166156e-05
0.05162949     1.2818503129270134e-05
0.0517598675     1.2818508725492013e-05
0.051890245     1.2818514335831824e-05
0.052020622499999995     1.2818519960289588e-05
0.052150999999999996     1.2818525598865348e-05
0.0522813775     1.2818531251559128e-05
0.052411755     1.2818536918370953e-05
0.0525421325     1.2818542599300856e-05
0.05267251     1.2818548294348868e-05
0.0528028875     1.2818554003515014e-05
0.052933265     1.2818559726799332e-05
0.0530636425     1.2818565464201842e-05
0.05319402     1.2818571215722582e-05
0.053324397499999995     1.281857698136158e-05
0.053454774999999996     1.2818582761118863e-05
0.0535851525     1.2818588554994466e-05
0.05371553     1.2818594362988412e-05
0.0538459075     1.281860018510074e-05
0.053976285     1.2818606021331477e-05
0.0541066625     1.2818611871680649e-05
0.05423704     1.2818617736148294e-05
0.0543674175     1.2818623614734438e-05
0.054497795     1.2818629507439111e-05
0.054628172499999995     1.2818635414262351e-05
0.054758549999999996     1.2818641335204177e-05
0.0548889275     1.2818647270264632e-05
0.055019305     1.2818653219443737e-05
0.0551496825     1.2818659182741528e-05
0.05528006     1.2818665160158037e-05
0.0554104375     1.2818671151693295e-05
0.055540815     1.281867715734733e-05
0.0556711925     1.2818683177120173e-05
0.05580157     1.2818689211011863e-05
0.055931947499999995     1.2818695259022427e-05
0.056062324999999996     1.2818701321151894e-05
0.0561927025     1.2818707397400297e-05
0.05632308     1.2818713487767669e-05
0.0564534575     1.2818719592254038e-05
0.056583835     1.2818725710859445e-05
0.0567142125     1.2818731843583912e-05
0.05684459     1.281873799042748e-05
0.0569749675     1.281874415139017e-05
0.057105345     1.2818750326472022e-05
0.057235722499999996     1.2818756515673072e-05
0.057366099999999996     1.2818762718993342e-05
0.0574964775     1.2818768936432871e-05
0.057626855     1.2818775167991692e-05
0.0577572325     1.2818781413669834e-05
0.05788761     1.2818787673467329e-05
0.0580179875     1.2818793947384214e-05
0.058148365     1.2818800235420519e-05
0.0582787425     1.2818806537576277e-05
0.058409119999999995     1.2818812853851523e-05
0.058539497499999996     1.2818819184246287e-05
0.058669874999999996     1.2818825528760605e-05
0.0588002525     1.2818831887394509e-05
0.05893063     1.2818838260148027e-05
0.0590610075     1.2818844647021204e-05
0.059191385     1.2818851048014062e-05
0.0593217625     1.2818857463126639e-05
0.05945214     1.281886389235897e-05
0.0595825175     1.2818870335711088e-05
0.059712894999999995     1.2818876793183025e-05
0.059843272499999996     1.2818883264774815e-05
0.059973649999999996     1.2818889750486492e-05
0.0601040275     1.281889625031809e-05
0.060234405     1.2818902764269645e-05
0.0603647825     1.2818909292341189e-05
0.06049516     1.2818915834532751e-05
0.0606255375     1.2818922390844377e-05
0.060755915     1.281892896127609e-05
0.0608862925     1.2818935545827932e-05
0.061016669999999995     1.2818942144499935e-05
0.061147047499999996     1.281894875729213e-05
0.061277424999999996     1.2818955384204559e-05
0.0614078025     1.2818962025237245e-05
0.06153818     1.2818968680390236e-05
0.0616685575     1.2818975349663556e-05
0.061798935     1.2818982033057248e-05
0.0619293125     1.281898873057134e-05
0.06205969     1.2818995442205875e-05
0.0621900675     1.2819002167960876e-05
0.062320444999999995     1.2819008907836395e-05
0.062450822499999996     1.2819015661832447e-05
0.0625812     1.2819022429949081e-05
0.0627115775     1.2819029212186335e-05
0.062841955     1.2819036008544237e-05
0.06297233249999999     1.2819042819022823e-05
0.06310270999999999     1.281904964362213e-05
0.0632330875     1.2819056482342192e-05
0.063363465     1.2819063335183048e-05
0.0634938425     1.2819070202144733e-05
0.06362422     1.281907708322728e-05
0.0637545975     1.2819083978430723e-05
