Energy[eV]     Absorp.[arb.units]
0.0     2.194950814828999e-05
0.0001035257     2.1949508159112228e-05
0.0002070514     2.1949508191578933e-05
0.0003105771     2.1949508245690118e-05
0.0004141028     2.1949508321445763e-05
0.0005176285     2.1949508418845902e-05
0.0006211542     2.19495085378905e-05
0.0007246799000000001     2.194950867857957e-05
0.0008282056     2.194950884091314e-05
0.0009317313     2.1949509024891166e-05
0.001035257     2.1949509230513666e-05
0.0011387827     2.194950945778065e-05
0.0012423084     2.1949509706692122e-05
0.0013458341     2.1949509977248073e-05
0.0014493598000000002     2.1949510269448493e-05
0.0015528855000000001     2.1949510583293404e-05
0.0016564112     2.1949510918782802e-05
0.0017599369     2.1949511275916694e-05
0.0018634626     2.194951165469507e-05
0.0019669883     2.1949512055117935e-05
0.002070514     2.1949512477185304e-05
0.0021740397000000002     2.1949512920897158e-05
0.0022775654     2.1949513386253515e-05
0.0023810911     2.1949513873254373e-05
0.0024846168     2.1949514381899735e-05
0.0025881425     2.194951491218961e-05
0.0026916682     2.1949515464123983e-05
0.0027951939     2.1949516037702874e-05
0.0028987196000000003     2.1949516632926282e-05
0.0030022453000000003     2.194951724979421e-05
0.0031057710000000002     2.1949517888306664e-05
0.0032092967     2.1949518548463635e-05
0.0033128224     2.194951923026514e-05
0.0034163481     2.1949519933711183e-05
0.0035198738     2.1949520658801757e-05
0.0036233995     2.194952140553687e-05
0.0037269252     2.1949522173916536e-05
0.0038304509000000003     2.194952296394075e-05
0.0039339766     2.194952377560951e-05
0.0040375023     2.1949524608922837e-05
0.004141028     2.1949525463880726e-05
0.0042445537000000005     2.1949526340483177e-05
0.0043480794000000005     2.1949527238730203e-05
0.0044516051000000004     2.1949528158621804e-05
0.0045551308     2.1949529100157997e-05
0.0046586565     2.1949530063338768e-05
0.0047621822     2.1949531048164135e-05
0.0048657079     2.19495320546341e-05
0.0049692336     2.1949533082748665e-05
0.0050727593     2.1949534132507852e-05
0.005176285     2.1949535203911638e-05
0.0052798107     2.194953629696005e-05
0.0053833364     2.1949537411653088e-05
0.0054868621     2.1949538547990765e-05
0.0055903878     2.194953970597308e-05
0.0056939135     2.1949540885600038e-05
0.005797439200000001     2.1949542086871647e-05
0.005900964900000001     2.194954330978791e-05
0.0060044906000000006     2.1949544554348848e-05
0.0061080163000000005     2.1949545820554457e-05
0.0062115420000000005     2.1949547108404746e-05
0.0063150677     2.1949548417899715e-05
0.0064185934     2.1949549749039385e-05
0.0065221191     2.1949551101823748e-05
0.0066256448     2.1949552476252826e-05
0.0067291705     2.194955387232661e-05
0.0068326962     2.1949555290045122e-05
0.0069362219     2.194955672940837e-05
0.0070397476     2.194955819041635e-05
0.0071432733     2.1949559673069085e-05
0.007246799     2.1949561177366576e-05
0.0073503247     2.194956270330882e-05
0.0074538504     2.1949564250895844e-05
0.007557376100000001     2.194956582012764e-05
0.007660901800000001     2.1949567411004236e-05
0.0077644275000000006     2.194956902352562e-05
0.0078679532     2.194957065769181e-05
0.0079714789     2.1949572313502822e-05
0.0080750046     2.194957399095866e-05
0.0081785303     2.1949575690059323e-05
0.008282056     2.194957741080483e-05
0.0083855817     2.194957915319519e-05
0.008489107400000001     2.1949580917230416e-05
0.0085926331     2.1949582702910516e-05
0.008696158800000001     2.1949584510235497e-05
0.0087996845     2.1949586339205358e-05
0.008903210200000001     2.1949588189820132e-05
0.0090067359     2.194959006207981e-05
0.0091102616     2.1949591955984413e-05
0.0092137873     2.194959387153395e-05
0.009317313     2.194959580872843e-05
0.0094208387     2.194959776756786e-05
0.0095243644     2.194959974805226e-05
0.0096278901     2.1949601750181625e-05
0.0097314158     2.1949603773955978e-05
0.0098349415     2.1949605819375334e-05
0.0099384672     2.1949607886439688e-05
0.010041992900000001     2.194960997514907e-05
0.0101455186     2.1949612085503487e-05
0.010249044300000001     2.1949614217502935e-05
0.01035257     2.1949616371147446e-05
0.010456095700000001     2.194961854643702e-05
0.0105596214     2.194962074337167e-05
0.010663147100000001     2.1949622961951406e-05
0.0107666728     2.194962520217625e-05
0.0108701985     2.1949627464046212e-05
0.0109737242     2.19496297475613e-05
0.0110772499     2.1949632052721528e-05
0.0111807756     2.1949634379526895e-05
0.0112843013     2.1949636727977438e-05
0.011387827     2.194963909807316e-05
0.0114913527     2.194964148981407e-05
0.011594878400000001     2.1949643903200185e-05
0.0116984041     2.194964633823151e-05
0.011801929800000001     2.1949648794908077e-05
0.0119054555     2.194965127322988e-05
0.012008981200000001     2.1949653773196942e-05
0.0121125069     2.1949656294809276e-05
0.012216032600000001     2.1949658838066893e-05
0.0123195583     2.1949661402969807e-05
0.012423084000000001     2.1949663989518034e-05
0.0125266097     2.194966659771159e-05
0.0126301354     2.194966922755049e-05
0.0127336611     2.194967187903474e-05
0.0128371868     2.1949674552164373e-05
0.0129407125     2.194967724693938e-05
0.0130442382     2.1949679963359784e-05
0.0131477639     2.194968270142561e-05
0.0132512896     2.1949685461136866e-05
0.013354815300000001     2.194968824249356e-05
0.013458341     2.1949691045495725e-05
0.013561866700000001     2.1949693870143355e-05
0.0136653924     2.194969671643648e-05
0.013768918100000001     2.1949699584375106e-05
0.0138724438     2.1949702473959264e-05
0.013975969500000001     2.194970538518896e-05
0.0140794952     2.19497083180642e-05
0.014183020900000001     2.1949711272585015e-05
0.0142865466     2.1949714248751414e-05
0.0143900723     2.1949717246563428e-05
0.014493598     2.1949720266021054e-05
0.0145971237     2.1949723307124315e-05
0.0147006494     2.194972636987322e-05
0.0148041751     2.1949729454267802e-05
0.0149077008     2.1949732560308068e-05
0.0150112265     2.1949735687994034e-05
0.015114752200000001     2.1949738837325728e-05
0.0152182779     2.1949742008303158e-05
0.015321803600000001     2.1949745200926343e-05
0.0154253293     2.194974841519529e-05
0.015528855000000001     2.1949751651110046e-05
0.0156323807     2.19497549086706e-05
0.0157359064     2.1949758187876976e-05
0.015839432100000002     2.19497614887292e-05
0.0159429578     2.1949764811227285e-05
0.0160464835     2.1949768155371244e-05
0.0161500092     2.194977152116111e-05
0.0162535349     2.1949774908596888e-05
0.0163570606     2.19497783176786e-05
0.0164605863     2.194978174840627e-05
0.016564112     2.1949785200779914e-05
0.0166676377     2.194978867479955e-05
0.0167711634     2.1949792170465197e-05
0.0168746891     2.1949795687776866e-05
0.016978214800000002     2.1949799226734594e-05
0.0170817405     2.194980278733838e-05
0.0171852662     2.194980636958827e-05
0.0172887919     2.1949809973484252e-05
0.017392317600000002     2.194981359902637e-05
0.0174958433     2.1949817246214633e-05
0.017599369     2.1949820915049062e-05
0.0177028947     2.1949824605529685e-05
0.017806420400000002     2.1949828317656503e-05
0.0179099461     2.194983205142956e-05
0.0180134718     2.1949835806848868e-05
0.0181169975     2.194983958391444e-05
0.0182205232     2.19498433826263e-05
0.0183240489     2.1949847202984473e-05
0.0184275746     2.1949851044988983e-05
0.018531100300000002     2.194985490863984e-05
0.018634626     2.1949858793937066e-05
0.0187381517     2.1949862700880696e-05
0.0188416774     2.194986662947074e-05
0.018945203100000002     2.194987057970722e-05
0.0190487288     2.1949874551590166e-05
0.0191522545     2.1949878545119594e-05
0.0192557802     2.1949882560295522e-05
0.019359305900000002     2.194988659711798e-05
0.0194628316     2.1949890655586975e-05
0.0195663573     2.194989473570255e-05
0.019669883     2.194989883746471e-05
0.0197734087     2.1949902960873484e-05
0.0198769344     2.1949907105928897e-05
0.0199804601     2.194991127263098e-05
0.020083985800000002     2.194991546097974e-05
0.0201875115     2.1949919670975204e-05
0.0202910372     2.1949923902617398e-05
0.0203945629     2.1949928155906346e-05
0.020498088600000002     2.1949932430842074e-05
0.0206016143     2.194993672742459e-05
0.02070514     2.1949941045653938e-05
0.0208086657     2.1949945385530137e-05
0.020912191400000002     2.19499497470532e-05
0.0210157171     2.194995413022315e-05
0.0211192428     2.1949958535040026e-05
0.0212227685     2.1949962961503834e-05
0.021326294200000002     2.1949967409614625e-05
0.0214298199     2.1949971879372396e-05
0.0215333456     2.1949976370777183e-05
0.021636871300000002     2.1949980883829018e-05
0.021740397     2.1949985418527914e-05
0.0218439227     2.19499899748739e-05
0.0219474484     2.1949994552867002e-05
0.022050974100000002     2.194999915250724e-05
0.0221544998     2.195000377379464e-05
0.0222580255     2.195000841672923e-05
0.0223615512     2.195001308131104e-05
0.022465076900000002     2.1950017767540092e-05
0.0225686026     2.1950022475416417e-05
0.0226721283     2.1950027204940024e-05
0.022775654     2.1950031956110963e-05
0.022879179700000002     2.195003672892924e-05
0.0229827054     2.1950041523394882e-05
0.0230862311     2.195004633950793e-05
0.023189756800000003     2.1950051177268398e-05
0.0232932825     2.1950056036676318e-05
0.0233968082     2.1950060917731713e-05
0.0235003339     2.1950065820434618e-05
0.023603859600000002     2.195007074478504e-05
0.0237073853     2.1950075690783033e-05
0.023810911     2.1950080658428604e-05
0.0239144367     2.1950085647721793e-05
0.024017962400000002     2.1950090658662616e-05
0.0241214881     2.1950095691251115e-05
0.0242250138     2.19501007454873e-05
0.0243285395     2.1950105821371205e-05
0.024432065200000002     2.195011091890287e-05
0.0245355909     2.1950116038082302e-05
0.0246391166     2.1950121178909546e-05
0.0247426423     2.1950126341384618e-05
0.024846168000000002     2.195013152550757e-05
0.0249496937     2.1950136731278394e-05
0.0250532194     2.195014195869715e-05
0.025156745100000003     2.195014720776384e-05
0.0252602708     2.1950152478478528e-05
0.0253637965     2.1950157770841203e-05
0.0254673222     2.195016308485193e-05
0.025570847900000002     2.1950168420510704e-05
0.0256743736     2.1950173777817584e-05
0.0257778993     2.1950179156772583e-05
0.025881425     2.1950184557375735e-05
0.025984950700000002     2.1950189979627067e-05
0.0260884764     2.195019542352661e-05
0.0261920021     2.1950200889074396e-05
0.0262955278     2.1950206376270448e-05
0.026399053500000002     2.1950211885114812e-05
0.0265025792     2.1950217415607505e-05
0.0266061049     2.1950222967748558e-05
0.026709630600000003     2.1950228541538004e-05
0.0268131563     2.1950234136975868e-05
0.026916682     2.1950239754062193e-05
0.0270202077     2.1950245392797e-05
0.027123733400000002     2.1950251053180325e-05
0.0272272591     2.195025673521219e-05
0.0273307848     2.1950262438892637e-05
0.0274343105     2.1950268164221702e-05
0.027537836200000002     2.19502739111994e-05
0.0276413619     2.195027967982577e-05
0.0277448876     2.195028547010084e-05
0.0278484133     2.1950291282024652e-05
0.027951939000000002     2.195029711559723e-05
0.0280554647     2.1950302970818607e-05
0.0281589904     2.1950308847688816e-05
0.028262516100000003     2.1950314746207885e-05
0.028366041800000002     2.1950320666375853e-05
0.0284695675     2.1950326608192753e-05
0.0285730932     2.1950332571658606e-05
0.028676618900000003     2.1950338556773455e-05
0.0287801446     2.1950344563537338e-05
0.0288836703     2.195035059195027e-05
0.028987196     2.19503566420123e-05
0.029090721700000002     2.1950362713723455e-05
0.0291942474     2.195036880708377e-05
0.0292977731     2.1950374922093285e-05
0.0294012988     2.1950381058752008e-05
0.029504824500000002     2.195038721706001e-05
0.0296083502     2.19503933970173e-05
0.0297118759     2.195039959862391e-05
0.0298154016     2.1950405821879887e-05
0.029918927300000002     2.1950412066785263e-05
0.030022453     2.1950418333340064e-05
0.0301259787     2.1950424621544335e-05
0.030229504400000003     2.1950430931398097e-05
0.030333030100000002     2.1950437262901395e-05
0.0304365558     2.1950443616054262e-05
0.0305400815     2.1950449990856733e-05
0.030643607200000002     2.1950456387308843e-05
0.0307471329     2.1950462805410624e-05
0.0308506586     2.1950469245162114e-05
0.0309541843     2.1950475706563345e-05
0.031057710000000002     2.195048218961436e-05
0.0311612357     2.1950488694315184e-05
0.0312647614     2.195049522066586e-05
0.0313682871     2.1950501768666423e-05
0.0314718128     2.195050833831691e-05
0.0315753385     2.1950514929617353e-05
0.031678864200000004     2.195052154256779e-05
0.0317823899     2.195052817716826e-05
0.0318859156     2.19505348334188e-05
0.031989441300000004     2.1950541511319433e-05
0.032092967     2.1950548210870215e-05
0.0321964927     2.1950554932071166e-05
0.0323000184     2.1950561674922333e-05
0.0324035441     2.1950568439423754e-05
0.0325070698     2.1950575225575463e-05
0.0326105955     2.1950582033377496e-05
0.0327141212     2.195058886282989e-05
0.032817646900000004     2.1950595713932683e-05
0.0329211726     2.195060258668592e-05
0.0330246983     2.1950609481089622e-05
0.033128224     2.1950616397143845e-05
0.0332317497     2.1950623334848617e-05
0.0333352754     2.1950630294203974e-05
0.0334388011     2.1950637275209964e-05
0.0335423268     2.195064427786662e-05
0.033645852500000004     2.1950651302173975e-05
0.0337493782     2.1950658348132078e-05
0.0338529039     2.1950665415740956e-05
0.033956429600000004     2.195067250500065e-05
0.0340599553     2.1950679615911214e-05
0.034163481     2.1950686748472673e-05
0.0342670067     2.195069390268507e-05
0.0343705324     2.1950701078548424e-05
0.0344740581     2.1950708276062815e-05
0.0345775838     2.195071549522826e-05
0.0346811095     2.195072273604479e-05
0.034784635200000004     2.1950729998512466e-05
0.0348881609     2.1950737282631304e-05
0.0349916866     2.1950744588401368e-05
0.035095212300000005     2.195075191582267e-05
0.035198738     2.1950759264895278e-05
0.0353022637     2.1950766635619223e-05
0.0354057894     2.195077402799454e-05
0.0355093151     2.195078144202127e-05
0.035612840800000004     2.195078887769946e-05
0.0357163665     2.1950796335029143e-05
0.0358198922     2.1950803814010363e-05
0.035923417900000004     2.195081131464317e-05
0.0360269436     2.19508188369276e-05
0.0361304693     2.1950826380863677e-05
0.036233995     2.195083394645146e-05
0.0363375207     2.1950841533691003e-05
0.0364410464     2.1950849142582314e-05
0.0365445721     2.1950856773125463e-05
0.0366480978     2.1950864425320476e-05
0.036751623500000004     2.1950872099167402e-05
0.0368551492     2.1950879794666287e-05
0.0369586749     2.1950887511817166e-05
0.037062200600000005     2.195089525062008e-05
0.0371657263     2.1950903011075083e-05
0.037269252     2.1950910793182195e-05
0.0373727777     2.195091859694149e-05
0.0374763034     2.1950926422352984e-05
0.0375798291     2.1950934269416728e-05
0.0376833548     2.195094213813277e-05
0.0377868805     2.1950950028501155e-05
0.037890406200000004     2.1950957940521925e-05
0.0379939319     2.195096587419511e-05
0.0380974576     2.195097382952077e-05
0.038200983300000005     2.1950981806498933e-05
0.038304509     2.195098980512965e-05
0.0384080347     2.1950997825412972e-05
0.0385115604     2.1951005867348942e-05
0.0386150861     2.1951013930937604e-05
0.038718611800000004     2.1951022016178987e-05
0.0388221375     2.1951030123073158e-05
0.0389256632     2.1951038251620137e-05
0.039029188900000004     2.195104640181999e-05
0.0391327146     2.1951054573672753e-05
0.0392362403     2.1951062767178462e-05
0.039339766     2.195107098233718e-05
0.0394432917     2.1951079219148938e-05
0.0395468174     2.1951087477613796e-05
0.0396503431     2.1951095757731782e-05
0.0397538688     2.195110405950295e-05
0.039857394500000004     2.1951112382927353e-05
0.0399609202     2.1951120728005017e-05
0.0400644459     2.1951129094735997e-05
0.040167971600000005     2.1951137483120348e-05
0.0402714973     2.1951145893158117e-05
0.040375023     2.195115432484933e-05
0.0404785487     2.1951162778194055e-05
0.0405820744     2.195117125319232e-05
0.040685600100000004     2.1951179749844184e-05
0.0407891258     2.1951188268149697e-05
0.0408926515     2.1951196808108886e-05
0.040996177200000004     2.1951205369721816e-05
0.0410997029     2.1951213952988536e-05
0.0412032286     2.1951222557909073e-05
0.0413067543     2.195123118448349e-05
0.04141028     2.195123983271184e-05
0.0415138057     2.1951248502594154e-05
0.0416173314     2.195125719413049e-05
0.0417208571     2.1951265907320895e-05
0.041824382800000004     2.1951274642165408e-05
0.0419279085     2.1951283398664095e-05
0.0420314342     2.1951292176816992e-05
0.042134959900000005     2.195130097662414e-05
0.0422384856     2.19513097980856e-05
0.0423420113     2.1951318641201417e-05
0.042445537     2.1951327505971636e-05
0.0425490627     2.1951336392396303e-05
0.042652588400000004     2.1951345300475476e-05
0.0427561141     2.1951354230209205e-05
0.0428596398     2.1951363181597525e-05
0.042963165500000004     2.1951372154640503e-05
0.0430666912     2.1951381149338173e-05
0.0431702169     2.1951390165690592e-05
0.043273742600000005     2.1951399203697816e-05
0.0433772683     2.1951408263359873e-05
0.043480794     2.1951417344676833e-05
0.0435843197     2.195142644764874e-05
0.0436878454     2.1951435572275636e-05
0.043791371100000004     2.1951444718557587e-05
0.0438948968     2.1951453886494626e-05
0.0439984225     2.1951463076086815e-05
0.044101948200000005     2.1951472287334214e-05
0.0442054739     2.195148152023684e-05
0.0443089996     2.1951490774794777e-05
0.0444125253     2.195150005100806e-05
0.044516051     2.1951509348876743e-05
0.044619576700000003     2.1951518668400886e-05
0.0447231024     2.1951528009580517e-05
0.0448266281     2.1951537372415707e-05
0.044930153800000004     2.1951546756906504e-05
0.0450336795     2.1951556163052953e-05
0.0451372052     2.195156559085512e-05
0.045240730900000005     2.1951575040313032e-05
0.0453442566     2.1951584511426762e-05
0.0454477823     2.195159400419636e-05
0.045551308     2.1951603518621865e-05
0.0456548337     2.195161305470335e-05
0.045758359400000004     2.1951622612440845e-05
0.0458618851     2.1951632191834422e-05
0.0459654108     2.1951641792884127e-05
0.046068936500000005     2.1951651415589998e-05
0.0461724622     2.1951661059952103e-05
0.0462759879     2.1951670725970495e-05
0.046379513600000005     2.1951680413645223e-05
0.0464830393     2.1951690122976337e-05
0.046586565     2.195169985396391e-05
0.0466900907     2.195170960660796e-05
0.0467936164     2.1951719380908572e-05
0.046897142100000004     2.1951729176865786e-05
0.0470006678     2.1951738994479658e-05
0.0471041935     2.1951748833750244e-05
0.047207719200000005     2.195175869467759e-05
0.0473112449     2.1951768577261757e-05
0.0474147706     2.1951778481502803e-05
0.0475182963     2.1951788407400777e-05
0.047621822     2.1951798354955733e-05
0.047725347700000004     2.1951808324167722e-05
0.0478288734     2.1951818315036803e-05
0.0479323991     2.195182832756304e-05
0.048035924800000004     2.1951838361746473e-05
0.0481394505     2.195184841758717e-05
0.0482429762     2.1951858495085175e-05
0.048346501900000005     2.1951868594240543e-05
0.0484500276     2.195187871505333e-05
0.0485535533     2.195188885752361e-05
0.048657079     2.1951899021651426e-05
0.0487606047     2.1951909207436824e-05
0.048864130400000004     2.1951919414879866e-05
0.0489676561     2.1951929643980608e-05
0.0490711818     2.195193989473912e-05
0.049174707500000005     2.1951950167155443e-05
0.0492782332     2.1951960461229633e-05
0.0493817589     2.1951970776961758e-05
0.0494852846     2.1951981114351857e-05
0.0495888103     2.1951991473400004e-05
