Energy[eV]     Absorp.[arb.units]
0.0     3.074879464858973e-05
0.0001607647     3.074879467121363e-05
0.0003215294     3.074879473908531e-05
0.0004822941     3.074879485220479e-05
0.0006430588     3.0748795010572054e-05
0.0008038235     3.0748795214187127e-05
0.0009645882     3.074879546304999e-05
0.0011253529     3.074879575716066e-05
0.0012861176     3.074879609651914e-05
0.0014468823000000001     3.074879648112545e-05
0.001607647     3.074879691097957e-05
0.0017684117     3.0748797386081525e-05
0.0019291764     3.074879790643133e-05
0.0020899411     3.074879847202898e-05
0.0022507058     3.07487990828745e-05
0.0024114705     3.074879973896789e-05
0.0025722352     3.074880044030917e-05
0.0027329999     3.074880118689835e-05
0.0028937646000000003     3.074880197873545e-05
0.0030545293     3.074880281582048e-05
0.003215294     3.074880369815346e-05
0.0033760587     3.07488046257344e-05
0.0035368234     3.0748805598563326e-05
0.0036975881     3.0748806616640266e-05
0.0038583528     3.074880767996522e-05
0.0040191175     3.074880878853821e-05
0.0041798822     3.074880994235926e-05
0.0043406469     3.0748811141428396e-05
0.0045014116     3.074881238574564e-05
0.0046621763     3.074881367531104e-05
0.004822941     3.074881501012457e-05
0.0049837057     3.07488163901863e-05
0.0051444704     3.074881781549624e-05
0.0053052351     3.074881928605441e-05
0.0054659998     3.074882080186085e-05
0.0056267645     3.07488223629156e-05
0.0057875292000000005     3.074882396921866e-05
0.0059482939     3.0748825620770086e-05
0.0061090586     3.07488273175699e-05
0.0062698233     3.074882905961814e-05
0.006430588     3.074883084691483e-05
0.0065913527     3.074883267946002e-05
0.0067521174     3.074883455725373e-05
0.0069128821     3.0748836480296e-05
0.0070736468     3.074883844858688e-05
0.0072344115     3.074884046212639e-05
0.0073951762     3.074884252091458e-05
0.0075559409000000004     3.0748844624951486e-05
0.0077167056     3.074884677423716e-05
0.0078774703     3.074884896877163e-05
0.008038235     3.074885120855493e-05
0.008198999700000001     3.074885349358713e-05
0.0083597644     3.074885582386825e-05
0.0085205291     3.074885819939835e-05
0.0086812938     3.074886062017748e-05
0.0088420585     3.074886308620567e-05
0.0090028232     3.074886559748298e-05
0.0091635879     3.074886815400945e-05
0.0093243526     3.0748870755785135e-05
0.0094851173     3.074887340281009e-05
0.009645882     3.0748876095084355e-05
0.0098066467     3.074887883260799e-05
0.0099674114     3.0748881615381045e-05
0.0101281761     3.074888444340358e-05
0.0102889408     3.0748887316675645e-05
0.0104497055     3.07488902351973e-05
0.0106104702     3.074889319896858e-05
0.010771234900000001     3.0748896207989586e-05
0.0109319996     3.074889926226033e-05
0.0110927643     3.0748902361780896e-05
0.011253529     3.074890550655135e-05
0.0114142937     3.074890869657173e-05
0.011575058400000001     3.0748911931842104e-05
0.0117358231     3.074891521236256e-05
0.0118965878     3.074891853813313e-05
0.0120573525     3.0748921909153893e-05
0.0122181172     3.0748925325424917e-05
0.0123788819     3.074892878694626e-05
0.0125396466     3.074893229371799e-05
0.0127004113     3.074893584574019e-05
0.012861176     3.0748939443012915e-05
0.0130219407     3.0748943085536223e-05
0.0131827054     3.074894677331021e-05
0.013343470100000001     3.0748950506334933e-05
0.0135042348     3.074895428461046e-05
0.0136649995     3.074895810813687e-05
0.0138257642     3.074896197691425e-05
0.0139865289     3.074896589094266e-05
0.0141472936     3.0748969850222184e-05
0.0143080583     3.074897385475288e-05
0.014468823     3.0748977904534846e-05
0.0146295877     3.074898199956816e-05
0.0147903524     3.0748986139852886e-05
0.0149511171     3.074899032538912e-05
0.015111881800000001     3.0748994556176934e-05
0.0152726465     3.074899883221642e-05
0.0154334112     3.074900315350764e-05
0.0155941759     3.074900752005071e-05
0.0157549406     3.074901193184568e-05
0.0159157053     3.074901638889267e-05
0.01607647     3.074902089119173e-05
0.0162372347     3.074902543874298e-05
0.016397999400000002     3.0749030031546484e-05
0.0165587641     3.074903466960233e-05
0.0167195288     3.074903935291064e-05
0.0168802935     3.074904408147147e-05
0.0170410582     3.0749048855284937e-05
0.0172018229     3.074905367435111e-05
0.0173625876     3.07490585386701e-05
0.0175233523     3.0749063448241994e-05
0.017684117     3.0749068403066895e-05
0.0178448817     3.0749073403144884e-05
0.0180056464     3.074907844847607e-05
0.0181664111     3.074908353906054e-05
0.0183271758     3.074908867489841e-05
0.0184879405     3.0749093855989766e-05
0.0186487052     3.0749099082334724e-05
0.0188094699     3.074910435393335e-05
0.0189702346     3.074910967078579e-05
0.0191309993     3.074911503289212e-05
0.019291764     3.074912044025245e-05
0.0194525287     3.0749125892866884e-05
0.0196132934     3.074913139073553e-05
0.019774058100000002     3.07491369338585e-05
0.0199348228     3.074914252223589e-05
0.0200955875     3.074914815586782e-05
0.0202563522     3.0749153834754376e-05
0.0204171169     3.07491595588957e-05
0.0205778816     3.074916532829188e-05
0.0207386463     3.0749171142943045e-05
0.020899411     3.0749177002849294e-05
0.0210601757     3.074918290801075e-05
0.0212209404     3.074918885842751e-05
0.0213817051     3.074919485409972e-05
0.021542469800000002     3.074920089502747e-05
0.0217032345     3.074920698121088e-05
0.0218639992     3.074921311265008e-05
0.0220247639     3.074921928934518e-05
0.0221855286     3.07492255112963e-05
0.0223462933     3.074923177850357e-05
0.022507058     3.0749238090967094e-05
0.0226678227     3.0749244448687014e-05
0.0228285874     3.074925085166345e-05
0.0229893521     3.0749257299896504e-05
0.023150116800000002     3.0749263793386325e-05
0.023310881500000002     3.0749270332133035e-05
0.0234716462     3.074927691613674e-05
0.0236324109     3.074928354539762e-05
0.0237931756     3.074929021991573e-05
0.0239539403     3.074929693969126e-05
0.024114705     3.074930370472431e-05
0.0242754697     3.074931051501502e-05
0.0244362344     3.074931737056353e-05
0.0245969991     3.0749324271369955e-05
0.0247577638     3.0749331217434434e-05
0.024918528500000002     3.074933820875711e-05
0.0250792932     3.0749345245338116e-05
0.0252400579     3.0749352327177585e-05
0.0254008226     3.074935945427565e-05
0.0255615873     3.074936662663247e-05
0.025722352     3.0749373844248154e-05
0.0258831167     3.074938110712286e-05
0.0260438814     3.074938841525674e-05
0.0262046461     3.0749395768649915e-05
0.0263654108     3.074940316730252e-05
0.0265261755     3.0749410611214734e-05
0.026686940200000002     3.074941810038667e-05
0.0268477049     3.074942563481848e-05
0.0270084696     3.074943321451032e-05
0.0271692343     3.0749440839462326e-05
0.027329999     3.074944850967465e-05
0.0274907637     3.0749456225147436e-05
0.0276515284     3.0749463985880844e-05
0.0278122931     3.0749471791875024e-05
0.0279730578     3.074947964313012e-05
0.0281338225     3.074948753964628e-05
0.0282945872     3.074949548142367e-05
0.028455351900000002     3.074950346846244e-05
0.0286161166     3.0749511500762745e-05
0.0287768813     3.074951957832473e-05
0.028937646     3.074952770114856e-05
0.0290984107     3.07495358692344e-05
0.0292591754     3.074954408258241e-05
0.0294199401     3.074955234119272e-05
0.0295807048     3.074956064506552e-05
0.0297414695     3.0749568994200965e-05
0.0299022342     3.074957738859921e-05
0.030062998900000002     3.0749585828260414e-05
0.030223763600000002     3.074959431318476e-05
0.0303845283     3.0749602843372396e-05
0.030545293     3.074961141882349e-05
0.0307060577     3.074962003953822e-05
0.0308668224     3.0749628705516725e-05
0.0310275871     3.074963741675921e-05
0.0311883518     3.0749646173265814e-05
0.0313491165     3.0749654975036724e-05
0.0315098812     3.0749663822072106e-05
0.0316706459     3.074967271437213e-05
0.0318314106     3.074968165193697e-05
0.0319921753     3.0749690634766796e-05
0.03215294     3.074969966286178e-05
0.0323137047     3.074970873622211e-05
0.0324744694     3.074971785484795e-05
0.0326352341     3.074972701873948e-05
0.032795998800000004     3.0749736227896884e-05
0.0329567635     3.074974548232033e-05
0.0331175282     3.0749754782010005e-05
0.0332782929     3.074976412696608e-05
0.0334390576     3.074977351718875e-05
0.0335998223     3.074978295267818e-05
0.033760587     3.074979243343458e-05
0.0339213517     3.07498019594581e-05
0.0340821164     3.074981153074895e-05
0.0342428811     3.074982114730731e-05
0.0344036458     3.0749830809133377e-05
0.034564410500000003     3.0749840516227304e-05
0.0347251752     3.074985026858931e-05
0.0348859399     3.0749860066219564e-05
0.0350467046     3.0749869909118284e-05
0.0352074693     3.074987979728563e-05
0.035368234     3.074988973072182e-05
0.0355289987     3.074989970942702e-05
0.0356897634     3.0749909733401444e-05
0.0358505281     3.074991980264529e-05
0.0360112928     3.074992991715873e-05
0.0361720575     3.0749940076941984e-05
0.0363328222     3.0749950281995224e-05
0.0364935869     3.074996053231868e-05
0.0366543516     3.074997082791252e-05
0.0368151163     3.074998116877697e-05
0.036975881     3.074999155491221e-05
0.0371366457     3.0750001986318454e-05
0.0372974104     3.07500124629959e-05
0.0374581751     3.075002298494475e-05
0.0376189398     3.0750033552165205e-05
0.037779704500000004     3.075004416465747e-05
0.0379404692     3.0750054822421764e-05
0.0381012339     3.075006552545828e-05
0.0382619986     3.075007627376724e-05
0.0384227633     3.075008706734883e-05
0.038583528     3.075009790620328e-05
0.0387442927     3.075010879033079e-05
0.0389050574     3.0750119719731574e-05
0.0390658221     3.075013069440585e-05
0.0392265868     3.0750141714353816e-05
0.0393873515     3.0750152779575695e-05
0.039548116200000004     3.075016389007171e-05
0.0397088809     3.0750175045842054e-05
0.0398696456     3.075018624688696e-05
0.0400304103     3.075019749320665e-05
0.040191175     3.075020878480133e-05
0.0403519397     3.0750220121671225e-05
0.0405127044     3.075023150381655e-05
0.0406734691     3.075024293123753e-05
0.0408342338     3.075025440393439e-05
0.0409949985     3.0750265921907346e-05
0.0411557632     3.0750277485156626e-05
0.041316527900000004     3.0750289093682446e-05
0.0414772926     3.0750300747485044e-05
0.0416380573     3.075031244656464e-05
0.041798822     3.075032419092145e-05
0.0419595867     3.075033598055573e-05
0.0421203514     3.075034781546768e-05
0.0422811161     3.0750359695657545e-05
0.0424418808     3.0750371621125544e-05
0.0426026455     3.075038359187192e-05
0.0427634102     3.075039560789691e-05
0.0429241749     3.075040766920072e-05
0.043084939600000004     3.0750419775783614e-05
0.0432457043     3.075043192764582e-05
0.043406469     3.075044412478755e-05
0.0435672337     3.0750456367209074e-05
0.0437279984     3.075046865491062e-05
0.0438887631     3.075048098789241e-05
0.0440495278     3.0750493366154695e-05
0.0442102925     3.075050578969772e-05
0.0443710572     3.075051825852172e-05
0.0445318219     3.0750530772626936e-05
0.0446925866     3.075054333201362e-05
0.044853351300000004     3.075055593668199e-05
0.045014116     3.075056858663233e-05
0.0451748807     3.0750581281864855e-05
0.0453356454     3.075059402237982e-05
0.0454964101     3.075060680817747e-05
0.0456571748     3.0750619639258064e-05
0.0458179395     3.0750632515621844e-05
0.0459787042     3.075064543726904e-05
0.0461394689     3.075065840419995e-05
0.046300233600000004     3.075067141641478e-05
0.0464609983     3.07506844739138e-05
0.046621763000000004     3.075069757669727e-05
0.0467825277     3.075071072476543e-05
0.0469432924     3.075072391811855e-05
0.0471040571     3.075073715675687e-05
0.0472648218     3.075075044068066e-05
0.0474255865     3.0750763769890176e-05
0.0475863512     3.075077714438567e-05
0.0477471159     3.075079056416741e-05
0.0479078806     3.075080402923565e-05
0.048068645300000004     3.075081753959065e-05
0.04822941     3.0750831095232675e-05
0.048390174700000003     3.0750844696162e-05
0.0485509394     3.075085834237886e-05
0.0487117041     3.075087203388354e-05
0.0488724688     3.075088577067631e-05
0.0490332335     3.0750899552757426e-05
0.0491939982     3.075091338012717e-05
0.0493547629     3.075092725278578e-05
0.0495155276     3.075094117073356e-05
0.0496762923     3.0750955133970764e-05
0.049837057000000004     3.075096914249766e-05
0.0499978217     3.075098319631452e-05
0.0501585864     3.075099729542162e-05
0.0503193511     3.075101143981924e-05
0.0504801158     3.0751025629507655e-05
0.0506408805     3.0751039864487116e-05
0.0508016452     3.075105414475793e-05
0.0509624099     3.075106847032036e-05
0.0511231746     3.075108284117468e-05
0.0512839393     3.075109725732118e-05
0.051444704     3.075111171876013e-05
0.051605468700000004     3.0751126225491814e-05
0.0517662334     3.075114077751651e-05
0.0519269981     3.0751155374834524e-05
0.0520877628     3.07511700174461e-05
0.0522485275     3.075118470535156e-05
0.0524092922     3.075119943855116e-05
0.0525700569     3.07512142170452e-05
0.0527308216     3.075122904083396e-05
0.0528915863     3.075124390991774e-05
0.053052351     3.075125882429682e-05
0.0532131157     3.075127378397148e-05
0.053373880400000004     3.075128878894203e-05
0.0535346451     3.075130383920875e-05
0.0536954098     3.075131893477193e-05
0.0538561745     3.0751334075631875e-05
0.0540169392     3.075134926178886e-05
0.0541777039     3.07513644932432e-05
0.0543384686     3.075137976999517e-05
0.0544992333     3.0751395092045096e-05
0.054659998     3.075141045939325e-05
0.0548207627     3.0751425872039935e-05
0.0549815274     3.075144132998546e-05
0.055142292100000004     3.075145683323012e-05
0.0553030568     3.075147238177419e-05
0.0554638215     3.075148797561802e-05
0.0556245862     3.0751503614761877e-05
0.0557853509     3.075151929920608e-05
0.0559461156     3.075153502895093e-05
0.0561068803     3.075155080399674e-05
0.056267645     3.075156662434379e-05
0.0564284097     3.0751582489992415e-05
0.0565891744     3.075159840094292e-05
0.0567499391     3.07516143571956e-05
0.056910703800000004     3.075163035875077e-05
0.0570714685     3.075164640560875e-05
0.0572322332     3.075166249776984e-05
0.0573929979     3.075167863523436e-05
0.0575537626     3.0751694818002624e-05
0.0577145273     3.0751711046074936e-05
0.057875292     3.075172731945161e-05
0.0580360567     3.0751743638132976e-05
0.0581968214     3.075176000211935e-05
0.058357586100000004     3.075177641141103e-05
0.0585183508     3.075179286600837e-05
0.058679115500000004     3.075180936591165e-05
0.0588398802     3.075182591112121e-05
0.0590006449     3.075184250163738e-05
0.0591614096     3.075185913746047e-05
0.0593221743     3.075187581859079e-05
0.059482939     3.07518925450287e-05
0.0596437037     3.07519093167745e-05
0.0598044684     3.07519261338285e-05
0.0599652331     3.0751942996191066e-05
0.060125997800000004     3.0751959903862496e-05
0.0602867625     3.075197685684313e-05
0.060447527200000004     3.075199385513329e-05
0.0606082919     3.0752010898733325e-05
0.0607690566     3.075202798764355e-05
0.0609298213     3.075204512186427e-05
0.061090586     3.075206230139588e-05
0.0612513507     3.075207952623867e-05
0.0614121154     3.075209679639297e-05
0.0615728801     3.075211411185915e-05
0.0617336448     3.075213147263752e-05
0.061894409500000004     3.075214887872842e-05
0.0620551742     3.075216633013218e-05
0.062215938900000003     3.0752183826849176e-05
0.0623767036     3.075220136887971e-05
0.0625374683     3.075221895622413e-05
0.062698233     3.075223658888279e-05
0.0628589977     3.0752254266856024e-05
0.0630197624     3.075227199014417e-05
0.0631805271     3.075228975874758e-05
0.0633412918     3.07523075726666e-05
0.0635020565     3.0752325431901567e-05
0.0636628212     3.075234333645284e-05
0.06382358590000001     3.0752361286320766e-05
0.0639843506     3.075237928150568e-05
0.0641451153     3.075239732200795e-05
0.06430588     3.075241540782791e-05
0.0644666447     3.0752433538965917e-05
0.0646274094     3.075245171542232e-05
0.0647881741     3.075246993719748e-05
0.0649489388     3.075248820429176e-05
0.0651097035     3.075250651670548e-05
0.0652704682     3.075252487443903e-05
0.0654312329     3.075254327749275e-05
0.06559199760000001     3.0752561725867006e-05
0.0657527623     3.0752580219562154e-05
0.065913527     3.075259875857854e-05
0.0660742917     3.075261734291654e-05
0.0662350564     3.0752635972576515e-05
0.0663958211     3.0752654647558825e-05
0.0665565858     3.0752673367863814e-05
0.0667173505     3.0752692133491884e-05
0.0668781152     3.075271094444336e-05
0.0670388799     3.075272980071863e-05
0.0671996446     3.075274870231806e-05
0.06736040930000001     3.0752767649242004e-05
0.067521174     3.075278664149084e-05
0.0676819387     3.075280567906493e-05
0.0678427034     3.075282476196466e-05
0.0680034681     3.0752843890190386e-05
0.0681642328     3.075286306374248e-05
0.0683249975     3.0752882282621324e-05
0.0684857622     3.0752901546827284e-05
0.0686465269     3.0752920856360735e-05
0.0688072916     3.075294021122205e-05
0.0689680563     3.075295961141161e-05
0.06912882100000001     3.075297905692978e-05
0.0692895857     3.075299854777696e-05
0.0694503504     3.0753018083953506e-05
0.0696111151     3.0753037665459824e-05
0.0697718798     3.0753057292296255e-05
0.0699326445     3.075307696446322e-05
0.0700934092     3.075309668196108e-05
0.0702541739     3.075311644479023e-05
0.0704149386     3.075313625295104e-05
0.0705757033     3.07531561064439e-05
0.070736468     3.07531760052692e-05
0.0708972327     3.075319594942732e-05
0.0710579974     3.0753215938918665e-05
0.0712187621     3.07532359737436e-05
0.0713795268     3.0753256053902516e-05
0.0715402915     3.0753276179395835e-05
0.0717010562     3.07532963502239e-05
0.0718618209     3.075331656638714e-05
0.0720225856     3.075333682788594e-05
0.0721833503     3.0753357134720683e-05
0.072344115     3.075337748689176e-05
0.0725048797     3.0753397884399604e-05
0.0726656444     3.075341832724456e-05
0.0728264091     3.075343881542705e-05
0.0729871738     3.075345934894749e-05
0.0731479385     3.075347992780624e-05
0.0733087032     3.0753500552003724e-05
0.0734694679     3.075352122154035e-05
0.0736302326     3.07535419364165e-05
0.07379099730000001     3.075356269663259e-05
0.073951762     3.0753583502189006e-05
0.0741125267     3.075360435308618e-05
0.0742732914     3.0753625249324505e-05
0.0744340561     3.0753646190904376e-05
0.0745948208     3.07536671778262e-05
0.0747555855     3.075368821009041e-05
0.0749163502     3.075370928769739e-05
0.0750771149     3.0753730410647555e-05
0.0752378796     3.075375157894133e-05
0.0753986443     3.075377279257911e-05
0.07555940900000001     3.075379405156131e-05
0.0757201737     3.075381535588835e-05
0.0758809384     3.075383670556064e-05
0.0760417031     3.075385810057859e-05
0.0762024678     3.0753879540942616e-05
0.0763632325     3.075390102665315e-05
0.0765239972     3.075392255771059e-05
0.0766847619     3.075394413411537e-05
0.0768455266     3.0753965755867904e-05
0.0770062913     3.07539874229686e-05
0.077167056     3.07540091354179e-05
0.07732782070000001     3.075403089321622e-05
0.0774885854     3.075405269636397e-05
0.0776493501     3.0754074544861593e-05
0.0778101148     3.075409643870951e-05
0.0779708795     3.075411837790812e-05
0.0781316442     3.0754140362457874e-05
0.0782924089     3.075416239235921e-05
0.0784531736     3.075418446761253e-05
0.0786139383     3.075420658821829e-05
0.078774703     3.075422875417688e-05
0.0789354677     3.075425096548878e-05
0.07909623240000001     3.075427322215439e-05
0.0792569971     3.075429552417415e-05
0.0794177618     3.075431787154849e-05
0.0795785265     3.075434026427785e-05
0.0797392912     3.075436270236266e-05
0.0799000559     3.0754385185803376e-05
0.0800608206     3.075440771460042e-05
0.0802215853     3.0754430288754216e-05
