Energy[eV]     Absorp.[arb.units]
0.0     4.992228242974285e-06
0.0001576341     4.992228244488221e-06
0.0003152682     4.992228249030031e-06
0.00047290230000000003     4.992228256599716e-06
0.0006305364     4.99222826719727e-06
0.0007881705000000001     4.9922282808227006e-06
0.0009458046000000001     4.992228297476002e-06
0.0011034387     4.992228317157178e-06
0.0012610728     4.992228339866227e-06
0.0014187069000000001     4.992228365603151e-06
0.0015763410000000002     4.992228394367946e-06
0.0017339751     4.992228426160618e-06
0.0018916092000000001     4.99222846098116e-06
0.0020492433     4.992228498829577e-06
0.0022068774     4.992228539705869e-06
0.0023645115000000003     4.992228583610035e-06
0.0025221456     4.992228630542074e-06
0.0026797797     4.992228680501988e-06
0.0028374138000000003     4.992228733489776e-06
0.0029950479     4.992228789505438e-06
0.0031526820000000004     4.9922288485489755e-06
0.0033103161000000002     4.992228910620389e-06
0.0034679502     4.992228975719676e-06
0.0036255843000000004     4.992229043846839e-06
0.0037832184000000002     4.992229115001875e-06
0.0039408525000000005     4.99222918918479e-06
0.0040984866     4.992229266395581e-06
0.0042561207     4.992229346634245e-06
0.0044137548     4.992229429900788e-06
0.0045713889     4.9922295161952065e-06
0.004729023000000001     4.992229605517501e-06
0.0048866571000000004     4.992229697867675e-06
0.0050442912     4.992229793245724e-06
0.0052019253     4.9922298916516525e-06
0.0053595594     4.992229993085456e-06
0.005517193500000001     4.9922300975471406e-06
0.0056748276000000005     4.992230205036703e-06
0.0058324617     4.9922303155541436e-06
0.0059900958     4.992230429099464e-06
0.0061477299     4.992230545672663e-06
0.006305364000000001     4.992230665273742e-06
0.006462998100000001     4.992230787902701e-06
0.0066206322000000005     4.992230913559541e-06
0.0067782663     4.9922310422442606e-06
0.0069359004     4.992231173956862e-06
0.0070935345     4.992231308697346e-06
0.007251168600000001     4.992231446465711e-06
0.007408802700000001     4.992231587261959e-06
0.0075664368000000004     4.9922317310860885e-06
0.0077240709     4.992231877938102e-06
0.007881705000000001     4.992232027818e-06
0.0080393391     4.992232180725779e-06
0.0081969732     4.9922323366614444e-06
0.0083546073     4.992232495624995e-06
0.0085122414     4.99223265761643e-06
0.0086698755     4.9922328226357525e-06
0.0088275096     4.992232990682959e-06
0.0089851437     4.992233161758054e-06
0.0091427778     4.992233335861037e-06
0.009300411900000001     4.992233512991906e-06
0.009458046000000001     4.992233693150665e-06
0.009615680100000001     4.992233876337309e-06
0.009773314200000001     4.992234062551845e-06
0.0099309483     4.992234251794271e-06
0.0100885824     4.992234444064588e-06
0.0102462165     4.992234639362795e-06
0.0104038506     4.9922348376888905e-06
0.0105614847     4.992235039042882e-06
0.0107191188     4.992235243424767e-06
0.0108767529     4.9922354508345425e-06
0.011034387000000001     4.992235661272212e-06
0.011192021100000001     4.992235874737777e-06
0.011349655200000001     4.992236091231236e-06
0.011507289300000001     4.9922363107525905e-06
0.0116649234     4.9922365333018416e-06
0.0118225575     4.992236758878991e-06
0.0119801916     4.992236987484036e-06
0.0121378257     4.992237219116982e-06
0.0122954598     4.992237453777823e-06
0.0124530939     4.992237691466566e-06
0.012610728000000002     4.9922379321832075e-06
0.012768362100000001     4.992238175927753e-06
0.012925996200000001     4.992238422700197e-06
0.013083630300000001     4.9922386725005456e-06
0.013241264400000001     4.992238925328797e-06
0.0133988985     4.9922391811849505e-06
0.0135565326     4.992239440069009e-06
0.0137141667     4.992239701980973e-06
0.0138718008     4.992239966920843e-06
0.0140294349     4.99224023488862e-06
0.014187069     4.992240505884304e-06
0.014344703100000002     4.992240779907896e-06
0.014502337200000001     4.992241056959398e-06
0.014659971300000001     4.992241337038811e-06
0.014817605400000001     4.992241620146131e-06
0.014975239500000001     4.992241906281367e-06
0.015132873600000001     4.99224219544451e-06
0.0152905077     4.992242487635571e-06
0.0154481418     4.9922427828545425e-06
0.0156057759     4.99224308110143e-06
0.015763410000000002     4.992243382376235e-06
0.0159210441     4.992243686678954e-06
0.0160786782     4.992243994009591e-06
0.0162363123     4.992244304368148e-06
0.0163939464     4.992244617754623e-06
0.0165515805     4.992244934169018e-06
0.0167092146     4.9922452536113324e-06
0.016866848700000003     4.99224557608157e-06
0.0170244828     4.992245901579731e-06
0.017182116900000002     4.992246230105816e-06
0.017339751     4.9922465616598235e-06
0.017497385100000002     4.992246896241758e-06
0.0176550192     4.9922472338516204e-06
0.017812653300000002     4.9922475744894066e-06
0.0179702874     4.992247918155125e-06
0.0181279215     4.992248264848771e-06
0.0182855556     4.9922486145703486e-06
0.0184431897     4.992248967319858e-06
0.018600823800000003     4.9922493230972975e-06
0.0187584579     4.992249681902673e-06
0.018916092000000002     4.992250043735982e-06
0.0190737261     4.992250408597226e-06
0.019231360200000002     4.9922507764864085e-06
0.0193889943     4.992251147403528e-06
0.019546628400000002     4.9922515213485865e-06
0.0197042625     4.992251898321585e-06
0.0198618966     4.992252278322522e-06
0.0200195307     4.992252661351402e-06
0.0201771648     4.992253047408227e-06
0.020334798900000003     4.992253436492994e-06
0.020492433     4.992253828605707e-06
0.020650067100000002     4.9922542237463674e-06
0.0208077012     4.992254621914975e-06
0.020965335300000002     4.992255023111531e-06
0.0211229694     4.9922554273360364e-06
0.021280603500000002     4.992255834588493e-06
0.0214382376     4.992256244868902e-06
0.0215958717     4.992256658177264e-06
0.0217535058     4.99225707451358e-06
0.0219111399     4.992257493877855e-06
0.022068774000000003     4.992257916270084e-06
0.0222264081     4.992258341690272e-06
0.022384042200000002     4.992258770138418e-06
0.0225416763     4.992259201614524e-06
0.022699310400000002     4.992259636118595e-06
0.0228569445     4.992260073650628e-06
0.023014578600000002     4.992260514210624e-06
0.0231722127     4.992260957798585e-06
0.0233298468     4.992261404414516e-06
0.0234874809     4.992261854058413e-06
0.023645115     4.99226230673028e-06
0.023802749100000003     4.992262762430117e-06
0.0239603832     4.9922632211579275e-06
0.024118017300000003     4.9922636829137095e-06
0.0242756514     4.9922641476974665e-06
0.024433285500000002     4.9922646155092e-06
0.0245909196     4.992265086348911e-06
0.024748553700000002     4.9922655602166e-06
0.0249061878     4.99226603711227e-06
0.0250638219     4.992266517035922e-06
0.025221456000000003     4.992266999987553e-06
0.0253790901     4.992267485967172e-06
0.025536724200000003     4.992267974974775e-06
0.0256943583     4.9922684670103665e-06
0.025851992400000003     4.992268962073945e-06
0.0260096265     4.992269460165511e-06
0.026167260600000002     4.9922699612850726e-06
0.0263248947     4.992270465432623e-06
0.026482528800000002     4.99227097260817e-06
0.0266401629     4.992271482811713e-06
0.026797797     4.992271996043251e-06
0.026955431100000003     4.992272512302787e-06
0.0271130652     4.992273031590325e-06
0.027270699300000003     4.992273553905863e-06
0.0274283334     4.992274079249406e-06
0.027585967500000003     4.992274607620951e-06
0.0277436016     4.992275139020503e-06
0.027901235700000002     4.992275673448062e-06
0.0280588698     4.992276210903632e-06
0.028216503900000002     4.99227675138721e-06
0.028374138     4.992277294898801e-06
0.0285317721     4.9922778414384065e-06
0.028689406200000003     4.992278391006026e-06
0.0288470403     4.992278943601662e-06
0.029004674400000003     4.992279499225317e-06
0.0291623085     4.992280057876992e-06
0.029319942600000003     4.9922806195566876e-06
0.0294775767     4.992281184264407e-06
0.029635210800000002     4.992281752000151e-06
0.0297928449     4.9922823227639226e-06
0.029950479000000002     4.99228289655572e-06
0.0301081131     4.99228347337555e-06
0.030265747200000002     4.992284053223409e-06
0.030423381300000003     4.992284636099301e-06
0.0305810154     4.992285222003229e-06
0.030738649500000003     4.992285810935193e-06
0.0308962836     4.9922864028951944e-06
0.031053917700000003     4.992286997883235e-06
0.0312115518     4.992287595899319e-06
0.0313691859     4.992288196943445e-06
0.031526820000000004     4.992288801015615e-06
0.0316844541     4.992289408115831e-06
0.0318420882     4.992290018244097e-06
0.031999722300000005     4.992290631400414e-06
0.0321573564     4.992291247584782e-06
0.0323149905     4.992291866797203e-06
0.0324726246     4.99229248903768e-06
0.032630258700000005     4.992293114306213e-06
0.0327878928     4.992293742602805e-06
0.0329455269     4.992294373927459e-06
0.033103161     4.992295008280175e-06
0.033260795100000004     4.992295645660954e-06
0.0334184292     4.9922962860698005e-06
0.0335760633     4.992296929506715e-06
0.033733697400000005     4.992297575971699e-06
0.0338913315     4.992298225464756e-06
0.0340489656     4.992298877985885e-06
0.0342065997     4.9922995335350906e-06
0.034364233800000005     4.992300192112373e-06
0.0345218679     4.992300853717734e-06
0.034679502     4.9923015183511776e-06
0.0348371361     4.992302186012703e-06
0.034994770200000004     4.992302856702313e-06
0.0351524043     4.992303530420011e-06
0.0353100384     4.992304207165797e-06
0.035467672500000005     4.992304886939673e-06
0.035625306600000003     4.992305569741644e-06
0.0357829407     4.992306255571707e-06
0.0359405748     4.992306944429868e-06
0.036098208900000005     4.992307636316128e-06
0.036255843     4.992308331230487e-06
0.0364134771     4.992309029172949e-06
0.0365711112     4.992309730143515e-06
0.036728745300000004     4.992310434142189e-06
0.0368863794     4.992311141168971e-06
0.0370440135     4.992311851223863e-06
0.037201647600000005     4.992312564306868e-06
0.037359281700000004     4.9923132804179866e-06
0.0375169158     4.992313999557224e-06
0.0376745499     4.992314721724578e-06
0.037832184000000005     4.992315446920053e-06
0.0379898181     4.992316175143652e-06
0.0381474522     4.992316906395377e-06
0.0383050863     4.992317640675227e-06
0.038462720400000004     4.9923183779832076e-06
0.0386203545     4.9923191183193184e-06
0.0387779886     4.992319861683563e-06
0.038935622700000005     4.992320608075942e-06
0.039093256800000004     4.99232135749646e-06
0.0392508909     4.992322109945118e-06
0.039408525     4.992322865421918e-06
0.039566159100000005     4.99232362392686e-06
0.0397237932     4.992324385459951e-06
0.0398814273     4.992325150021191e-06
0.0400390614     4.992325917610579e-06
0.040196695500000004     4.992326688228119e-06
0.0403543296     4.992327461873818e-06
0.0405119637     4.992328238547673e-06
0.040669597800000006     4.992329018249687e-06
0.040827231900000004     4.992329800979861e-06
0.040984866     4.992330586738201e-06
0.0411425001     4.992331375524707e-06
0.041300134200000005     4.992332167339382e-06
0.0414577683     4.992332962182228e-06
0.0416154024     4.992333760053245e-06
0.0417730365     4.99233456095244e-06
0.041930670600000004     4.99233536487981e-06
0.0420883047     4.9923361718353605e-06
0.0422459388     4.992336981819093e-06
0.042403572900000006     4.9923377948310115e-06
0.042561207000000004     4.992338610871116e-06
0.0427188411     4.992339429939411e-06
0.0428764752     4.992340252035895e-06
0.043034109300000005     4.992341077160575e-06
0.0431917434     4.992341905313452e-06
0.0433493775     4.9923427364945246e-06
0.0435070116     4.992343570703803e-06
0.043664645700000004     4.99234440794128e-06
0.0438222798     4.992345248206964e-06
0.0439799139     4.992346091500857e-06
0.044137548000000006     4.992346937822961e-06
0.044295182100000004     4.992347787173278e-06
0.0444528162     4.99234863955181e-06
0.0446104503     4.99234949495856e-06
0.044768084400000005     4.99235035339353e-06
0.0449257185     4.992351214856724e-06
0.0450833526     4.992352079348142e-06
0.0452409867     4.9923529468677895e-06
0.045398620800000004     4.992353817415666e-06
0.0455562549     4.992354690991775e-06
0.045713889     4.99235556759612e-06
0.045871523100000006     4.992356447228701e-06
0.046029157200000004     4.9923573298895256e-06
0.0461867913     4.992358215578591e-06
0.0463444254     4.992359104295901e-06
0.046502059500000005     4.9923599960414606e-06
0.0466596936     4.992360890815272e-06
0.0468173277     4.992361788617333e-06
0.0469749618     4.9923626894476505e-06
0.047132595900000004     4.992363593306227e-06
0.04729023     4.992364500193065e-06
0.0474478641     4.992365410108166e-06
0.047605498200000006     4.9923663230515315e-06
0.047763132300000004     4.9923672390231665e-06
0.0479207664     4.992368158023071e-06
0.0480784005     4.992369080051252e-06
0.048236034600000005     4.99237000510771e-06
0.0483936687     4.9923709331924435e-06
0.0485513028     4.99237186430546e-06
0.0487089369     4.992372798446763e-06
0.048866571000000004     4.992373735616351e-06
0.0490242051     4.99237467581423e-06
0.0491818392     4.992375619040402e-06
0.049339473300000006     4.992376565294868e-06
0.049497107400000004     4.9923775145776335e-06
0.0496547415     4.992378466888698e-06
0.0498123756     4.992379422228066e-06
0.049970009700000005     4.9923803805957405e-06
0.0501276438     4.992381341991723e-06
0.0502852779     4.992382306416019e-06
0.050442912000000006     4.9923832738686285e-06
0.050600546100000005     4.992384244349554e-06
0.0507581802     4.9923852178588015e-06
0.0509158143     4.992386194396371e-06
0.051073448400000006     4.992387173962265e-06
0.051231082500000004     4.992388156556488e-06
0.0513887166     4.992389142179041e-06
0.0515463507     4.99239013082993e-06
0.051703984800000005     4.9923911225091545e-06
0.0518616189     4.992392117216719e-06
0.052019253     4.992393114952625e-06
0.052176887100000006     4.992394115716877e-06
0.052334521200000005     4.992395119509477e-06
0.0524921553     4.992396126330427e-06
0.0526497894     4.992397136179734e-06
0.052807423500000006     4.992398149057395e-06
0.052965057600000004     4.992399164963418e-06
0.0531226917     4.992400183897802e-06
0.0532803258     4.9924012058605515e-06
0.053437959900000005     4.99240223085167e-06
0.053595594     4.992403258871159e-06
0.0537532281     4.992404289919024e-06
0.053910862200000007     4.992405323995266e-06
0.054068496300000005     4.9924063610998876e-06
0.0542261304     4.9924074012328925e-06
0.0543837645     4.992408444394284e-06
0.054541398600000006     4.992409490584064e-06
0.054699032700000004     4.992410539802238e-06
0.0548566668     4.992411592048805e-06
0.0550143009     4.992412647323771e-06
0.055171935000000005     4.992413705627137e-06
0.0553295691     4.992414766958911e-06
0.0554872032     4.992415831319088e-06
0.05564483730000001     4.992416898707678e-06
0.055802471400000005     4.99241796912468e-06
0.0559601055     4.9924190425701015e-06
0.0561177396     4.992420119043939e-06
0.056275373700000006     4.992421198546201e-06
0.056433007800000004     4.992422281076888e-06
0.0565906419     4.992423366636004e-06
0.056748276     4.992424455223552e-06
0.056905910100000005     4.992425546839535e-06
0.0570635442     4.992426641483957e-06
0.0572211783     4.9924277391568194e-06
0.05737881240000001     4.992428839858126e-06
0.057536446500000005     4.992429943587882e-06
0.0576940806     4.992431050346087e-06
0.0578517147     4.992432160132747e-06
0.058009348800000006     4.9924332729478615e-06
0.058166982900000004     4.992434388791439e-06
0.058324617     4.992435507663481e-06
0.0584822511     4.992436629563987e-06
0.058639885200000005     4.992437754492966e-06
0.058797519300000003     4.992438882450413e-06
0.0589551534     4.992440013436341e-06
0.05911278750000001     4.992441147450749e-06
0.059270421600000005     4.992442284493637e-06
0.0594280557     4.992443424565013e-06
0.0595856898     4.992444567664876e-06
0.059743323900000006     4.992445713793233e-06
0.059900958000000004     4.992446862950088e-06
0.0600585921     4.992448015135441e-06
0.0602162262     4.9924491703492945e-06
0.060373860300000005     4.992450328591656e-06
0.060531494400000004     4.992451489862527e-06
0.0606891285     4.9924526541619074e-06
0.06084676260000001     4.992453821489806e-06
0.061004396700000005     4.992454991846224e-06
0.0611620308     4.992456165231164e-06
0.0613196649     4.99245734164463e-06
0.061477299000000006     4.992458521086626e-06
0.061634933100000004     4.992459703557154e-06
0.0617925672     4.9924608890562175e-06
0.0619502013     4.992462077583821e-06
0.062107835400000005     4.992463269139967e-06
0.062265469500000004     4.992464463724659e-06
0.0624231036     4.992465661337901e-06
0.0625807377     4.992466861979697e-06
0.0627383718     4.99246806565005e-06
0.06289600590000001     4.992469272348961e-06
0.06305364000000001     4.992470482076434e-06
0.0632112741     4.992471694832478e-06
0.0633689082     4.992472910617089e-06
0.0635265423     4.9924741294302755e-06
0.0636841764     4.992475351272039e-06
0.0638418105     4.992476576142383e-06
0.06399944460000001     4.99247780404131e-06
0.06415707870000001     4.992479034968829e-06
0.0643147128     4.992480268924936e-06
0.0644723469     4.992481505909639e-06
0.064629981     4.99248274592294e-06
0.0647876151     4.992483988964843e-06
0.0649452492     4.992485235035352e-06
0.0651028833     4.992486484134469e-06
0.06526051740000001     4.9924877362622e-06
0.06541815150000001     4.992488991418547e-06
0.0655757856     4.992490249603515e-06
0.0657334197     4.9924915108171055e-06
0.0658910538     4.992492775059324e-06
0.0660486879     4.99249404233017e-06
0.066206322     4.992495312629655e-06
0.06636395610000001     4.992496585957774e-06
0.06652159020000001     4.992497862314535e-06
0.0666792243     4.992499141699943e-06
0.0668368584     4.992500424114e-06
0.0669944925     4.992501709556709e-06
0.0671521266     4.992502998028076e-06
0.0673097607     4.9925042895281e-06
0.06746739480000001     4.99250558405679e-06
0.06762502890000001     4.992506881614147e-06
0.067782663     4.992508182200173e-06
0.0679402971     4.9925094858148775e-06
0.0680979312     4.992510792458258e-06
0.0682555653     4.99251210213032e-06
0.0684131994     4.992513414831072e-06
0.0685708335     4.992514730560511e-06
0.06872846760000001     4.9925160493186455e-06
0.06888610170000001     4.992517371105474e-06
0.0690437358     4.992518695921006e-06
0.0692013699     4.992520023765244e-06
0.069359004     4.992521354638189e-06
0.0695166381     4.992522688539847e-06
0.0696742722     4.992524025470221e-06
0.06983190630000001     4.992525365429316e-06
0.06998954040000001     4.992526708417134e-06
0.0701471745     4.992528054433681e-06
0.0703048086     4.992529403478961e-06
0.0704624427     4.9925307555529735e-06
0.0706200768     4.992532110655726e-06
0.0707777109     4.992533468787224e-06
0.07093534500000001     4.992534829947469e-06
0.07109297910000001     4.992536194136464e-06
0.07125061320000001     4.992537561354216e-06
0.0714082473     4.992538931600724e-06
0.0715658814     4.992540304875997e-06
0.0717235155     4.992541681180038e-06
0.0718811496     4.992543060512847e-06
0.0720387837     4.992544442874432e-06
0.07219641780000001     4.992545828264795e-06
0.07235405190000001     4.992547216683943e-06
0.072511686     4.992548608131876e-06
0.0726693201     4.992550002608598e-06
0.0728269542     4.9925514001141175e-06
0.0729845883     4.9925528006484335e-06
0.0731422224     4.992554204211555e-06
0.07329985650000001     4.99255561080348e-06
0.07345749060000001     4.992557020424217e-06
0.0736151247     4.992558433073769e-06
0.0737727588     4.992559848752141e-06
0.0739303929     4.992561267459332e-06
0.074088027     4.992562689195353e-06
0.0742456611     4.992564113960205e-06
0.07440329520000001     4.992565541753891e-06
0.07456092930000001     4.992566972576417e-06
