Energy[eV]     Absorp.[arb.units]
0.0     9.751791221621823e-06
0.00011592570000000001     9.751791225063479e-06
0.00023185140000000001     9.751791235388451e-06
0.0003477771     9.751791252596739e-06
0.00046370280000000003     9.751791276688341e-06
0.0005796285000000001     9.751791307663258e-06
0.0006955542     9.75179134552149e-06
0.0008114799     9.751791390263037e-06
0.0009274056000000001     9.751791441887897e-06
0.0010433313     9.751791500396076e-06
0.0011592570000000001     9.751791565787569e-06
0.0012751827000000002     9.751791638062381e-06
0.0013911084     9.751791717220507e-06
0.0015070341     9.75179180326195e-06
0.0016229598     9.751791896186709e-06
0.0017388855     9.75179199599479e-06
0.0018548112000000001     9.751792102686186e-06
0.0019707369     9.751792216260898e-06
0.0020866626     9.751792336718932e-06
0.0022025883000000002     9.751792464060283e-06
0.0023185140000000003     9.751792598284956e-06
0.0024344397000000003     9.751792739392947e-06
0.0025503654000000003     9.751792887384259e-06
0.0026662911000000004     9.751793042258893e-06
0.0027822168     9.751793204016852e-06
0.0028981425     9.751793372658132e-06
0.0030140682     9.751793548182733e-06
0.0031299939     9.751793730590662e-06
0.0032459196     9.751793919881912e-06
0.0033618453     9.751794116056491e-06
0.003477771     9.751794319114393e-06
0.0035936967     9.751794529055622e-06
0.0037096224000000002     9.751794745880182e-06
0.0038255481000000003     9.751794969588071e-06
0.0039414738     9.751795200179286e-06
0.0040573995     9.751795437653836e-06
0.0041733252     9.751795682011717e-06
0.0042892509     9.751795933252929e-06
0.0044051766000000004     9.751796191377473e-06
0.0045211023000000005     9.751796456385356e-06
0.0046370280000000005     9.751796728276573e-06
0.0047529537000000005     9.751797007051128e-06
0.004868879400000001     9.751797292709019e-06
0.004984805100000001     9.751797585250251e-06
0.005100730800000001     9.751797884674824e-06
0.005216656500000001     9.751798190982736e-06
0.005332582200000001     9.75179850417399e-06
0.005448507900000001     9.751798824248591e-06
0.0055644336     9.751799151206537e-06
0.0056803593     9.751799485047831e-06
0.005796285     9.751799825772472e-06
0.0059122107     9.75180017338046e-06
0.0060281364     9.7518005278718e-06
0.0061440621     9.751800889246491e-06
0.0062599878     9.75180125750454e-06
0.0063759135     9.75180163264594e-06
0.0064918392     9.751802014670701e-06
0.0066077649     9.751802403578816e-06
0.0067236906     9.75180279937029e-06
0.0068396163     9.751803202045127e-06
0.006955542     9.75180361160333e-06
0.0070714677     9.751804028044896e-06
0.0071873934     9.751804451369827e-06
0.0073033191     9.751804881578127e-06
0.0074192448000000005     9.751805318669796e-06
0.0075351705000000005     9.751805762644834e-06
0.0076510962000000005     9.751806213503247e-06
0.0077670219000000006     9.751806671245039e-06
0.0078829476     9.751807135870205e-06
0.0079988733     9.751807607378747e-06
0.008114799     9.751808085770674e-06
0.0082307247     9.751808571045981e-06
0.0083466504     9.751809063204675e-06
0.0084625761     9.751809562246754e-06
0.0085785018     9.751810068172223e-06
0.0086944275     9.751810580981082e-06
0.008810353200000001     9.751811100673332e-06
0.008926278900000001     9.751811627248979e-06
0.009042204600000001     9.751812160708023e-06
0.009158130300000001     9.751812701050466e-06
0.009274056000000001     9.75181324827631e-06
0.009389981700000001     9.751813802385557e-06
0.009505907400000001     9.751814363378209e-06
0.009621833100000001     9.751814931254267e-06
0.009737758800000001     9.751815506013737e-06
0.009853684500000001     9.751816087656623e-06
0.009969610200000001     9.751816676182921e-06
0.010085535900000001     9.751817271592634e-06
0.010201461600000001     9.75181787388577e-06
0.010317387300000001     9.751818483062327e-06
0.010433313000000001     9.75181909912231e-06
0.010549238700000001     9.751819722065718e-06
0.010665164400000001     9.751820351892559e-06
0.010781090100000001     9.751820988602827e-06
0.010897015800000001     9.75182163219653e-06
0.011012941500000002     9.751822282673672e-06
0.0111288672     9.751822940034257e-06
0.0112447929     9.751823604278278e-06
0.0113607186     9.75182427540575e-06
0.0114766443     9.751824953416665e-06
0.01159257     9.751825638311036e-06
0.0117084957     9.751826330088855e-06
0.0118244214     9.751827028750134e-06
0.0119403471     9.751827734294869e-06
0.0120562728     9.75182844672307e-06
0.0121721985     9.75182916603473e-06
0.0122881242     9.751829892229861e-06
0.0124040499     9.75183062530846e-06
0.0125199756     9.751831365270536e-06
0.0126359013     9.751832112116088e-06
0.012751827     9.751832865845117e-06
0.0128677527     9.75183362645763e-06
0.0129836784     9.751834393953626e-06
0.0130996041     9.751835168333114e-06
0.0132155298     9.75183594959609e-06
0.0133314555     9.751836737742565e-06
0.0134473812     9.751837532772534e-06
0.0135633069     9.751838334686007e-06
0.0136792326     9.751839143482984e-06
0.0137951583     9.751839959163469e-06
0.013911084     9.751840781727466e-06
0.0140270097     9.751841611174972e-06
0.0141429354     9.751842447506002e-06
0.0142588611     9.751843290720552e-06
0.0143747868     9.751844140818622e-06
0.0144907125     9.751844997800225e-06
0.0146066382     9.751845861665357e-06
0.014722563900000001     9.75184673241402e-06
0.014838489600000001     9.75184761004623e-06
0.014954415300000001     9.751848494561975e-06
0.015070341000000001     9.751849385961265e-06
0.015186266700000001     9.751850284244108e-06
0.015302192400000001     9.751851189410504e-06
0.015418118100000001     9.751852101460452e-06
0.015534043800000001     9.751853020393964e-06
0.0156499695     9.751853946211036e-06
0.0157658952     9.751854878911679e-06
0.0158818209     9.75185581849589e-06
0.0159977466     9.751856764963676e-06
0.0161136723     9.751857718315045e-06
0.016229598     9.751858678549989e-06
0.0163455237     9.751859645668525e-06
0.0164614494     9.75186061967065e-06
0.0165773751     9.751861600556369e-06
0.0166933008     9.751862588325683e-06
0.0168092265     9.751863582978606e-06
0.0169251522     9.751864584515132e-06
0.0170410779     9.751865592935265e-06
0.0171570036     9.751866608239019e-06
0.0172729293     9.751867630426386e-06
0.017388855     9.751868659497376e-06
0.0175047807     9.751869695451994e-06
0.017620706400000002     9.751870738290241e-06
0.0177366321     9.751871788012125e-06
0.017852557800000002     9.751872844617647e-06
0.0179684835     9.751873908106811e-06
0.018084409200000002     9.751874978479622e-06
0.0182003349     9.751876055736091e-06
0.018316260600000002     9.751877139876213e-06
0.0184321863     9.751878230899994e-06
0.018548112000000002     9.751879328807443e-06
0.0186640377     9.751880433598559e-06
0.018779963400000002     9.751881545273349e-06
0.0188958891     9.751882663831821e-06
0.019011814800000002     9.751883789273971e-06
0.0191277405     9.75188492159981e-06
0.019243666200000002     9.751886060809345e-06
0.0193595919     9.751887206902571e-06
0.019475517600000002     9.751888359879503e-06
0.0195914433     9.751889519740139e-06
0.019707369000000002     9.751890686484486e-06
0.0198232947     9.751891860112545e-06
0.019939220400000002     9.75189304062433e-06
0.0200551461     9.751894228019834e-06
0.020171071800000002     9.75189542229907e-06
0.0202869975     9.751896623462041e-06
0.020402923200000003     9.75189783150875e-06
0.0205188489     9.751899046439206e-06
0.020634774600000003     9.751900268253407e-06
0.0207507003     9.751901496951365e-06
0.020866626000000003     9.75190273253308e-06
0.0209825517     9.751903974998557e-06
0.021098477400000003     9.751905224347807e-06
0.0212144031     9.75190648058083e-06
0.021330328800000003     9.751907743697628e-06
0.0214462545     9.751909013698214e-06
0.021562180200000003     9.751910290582585e-06
0.0216781059     9.751911574350755e-06
0.021794031600000003     9.75191286500272e-06
0.0219099573     9.751914162538496e-06
0.022025883000000003     9.751915466958078e-06
0.0221418087     9.751916778261476e-06
0.0222577344     9.751918096448692e-06
0.0223736601     9.751919421519733e-06
0.0224895858     9.751920753474608e-06
0.0226055115     9.751922092313317e-06
0.0227214372     9.75192343803587e-06
0.0228373629     9.75192479064227e-06
0.0229532886     9.751926150132522e-06
0.0230692143     9.751927516506632e-06
0.02318514     9.751928889764605e-06
0.0233010657     9.751930269906447e-06
0.0234169914     9.751931656932166e-06
0.023532917100000002     9.751933050841764e-06
0.0236488428     9.751934451635247e-06
0.023764768500000002     9.751935859312622e-06
0.0238806942     9.751937273873896e-06
0.023996619900000002     9.751938695319068e-06
0.0241125456     9.751940123648155e-06
0.024228471300000002     9.751941558861152e-06
0.024344397     9.75194300095807e-06
0.024460322700000002     9.751944449938912e-06
0.0245762484     9.751945905803688e-06
0.024692174100000002     9.751947368552407e-06
0.0248080998     9.75194883818506e-06
0.024924025500000002     9.751950314701667e-06
0.0250399512     9.751951798102229e-06
0.025155876900000002     9.751953288386755e-06
0.0252718026     9.751954785555247e-06
0.025387728300000002     9.75195628960771e-06
0.025503654     9.751957800544154e-06
0.025619579700000002     9.751959318364584e-06
0.0257355054     9.751960843069004e-06
0.025851431100000002     9.751962374657425e-06
0.0259673568     9.751963913129845e-06
0.026083282500000003     9.751965458486281e-06
0.0261992082     9.751967010726731e-06
0.026315133900000003     9.7519685698512e-06
0.0264310596     9.751970135859703e-06
0.026546985300000003     9.75197170875224e-06
0.026662911     9.751973288528816e-06
0.026778836700000003     9.751974875189444e-06
0.0268947624     9.751976468734121e-06
0.027010688100000003     9.751978069162865e-06
0.0271266138     9.75197967647567e-06
0.027242539500000003     9.751981290672553e-06
0.0273584652     9.751982911753517e-06
0.027474390900000003     9.751984539718566e-06
0.0275903166     9.751986174567706e-06
0.027706242300000003     9.751987816300949e-06
0.027822168     9.751989464918296e-06
0.027938093700000003     9.751991120419758e-06
0.0280540194     9.75199278280534e-06
0.028169945100000003     9.751994452075048e-06
0.0282858708     9.751996128228889e-06
0.028401796500000003     9.751997811266869e-06
0.0285177222     9.751999501188993e-06
0.028633647900000003     9.752001197995275e-06
0.0287495736     9.752002901685717e-06
0.028865499300000003     9.752004612260327e-06
0.028981425     9.752006329719107e-06
0.029097350700000003     9.75200805406207e-06
0.0292132764     9.752009785289223e-06
0.029329202100000003     9.752011523400568e-06
0.029445127800000002     9.752013268396118e-06
0.029561053500000004     9.752015020275872e-06
0.029676979200000002     9.752016779039849e-06
0.0297929049     9.752018544688045e-06
0.029908830600000002     9.75202031722047e-06
0.0300247563     9.752022096637136e-06
0.030140682000000002     9.752023882938042e-06
0.0302566077     9.7520256761232e-06
0.030372533400000002     9.75202747619262e-06
0.0304884591     9.752029283146306e-06
0.030604384800000002     9.752031096984265e-06
0.0307203105     9.752032917706505e-06
0.030836236200000002     9.752034745313032e-06
0.0309521619     9.752036579803854e-06
0.031068087600000002     9.75203842117898e-06
0.0311840133     9.752040269438416e-06
0.031299939     9.75204212458217e-06
0.031415864700000004     9.752043986610248e-06
0.0315317904     9.752045855522659e-06
0.0316477161     9.752047731319411e-06
0.0317636418     9.752049614000509e-06
0.031879567500000004     9.752051503565965e-06
0.0319954932     9.75205340001578e-06
0.0321114189     9.75205530334997e-06
0.0322273446     9.752057213568536e-06
0.032343270300000004     9.75205913067149e-06
0.032459196     9.752061054658837e-06
0.0325751217     9.752062985530583e-06
0.0326910474     9.75206492328674e-06
0.032806973100000004     9.752066867927313e-06
0.0329228988     9.752068819452311e-06
0.0330388245     9.752070777861744e-06
0.0331547502     9.752072743155613e-06
0.033270675900000005     9.752074715333933e-06
0.0333866016     9.752076694396711e-06
0.0335025273     9.752078680343952e-06
0.033618453     9.752080673175663e-06
0.033734378700000005     9.752082672891859e-06
0.0338503044     9.752084679492543e-06
0.0339662301     9.752086692977718e-06
0.0340821558     9.752088713347406e-06
0.034198081500000005     9.7520907406016e-06
0.0343140072     9.752092774740316e-06
0.0344299329     9.752094815763565e-06
0.0345458586     9.752096863671348e-06
0.034661784300000005     9.752098918463678e-06
0.03477771     9.752100980140559e-06
0.0348936357     9.752103048702007e-06
0.0350095614     9.752105124148025e-06
0.035125487100000005     9.752107206478618e-06
0.035241412800000003     9.752109295693798e-06
0.0353573385     9.75211139179358e-06
0.0354732642     9.75211349477796e-06
0.035589189900000005     9.752115604646953e-06
0.035705115600000004     9.75211772140057e-06
0.0358210413     9.752119845038815e-06
0.035936967     9.7521219755617e-06
0.036052892700000005     9.752124112969231e-06
0.036168818400000004     9.752126257261415e-06
0.0362847441     9.752128408438263e-06
0.0364006698     9.752130566499789e-06
0.036516595500000006     9.752132731445991e-06
0.036632521200000004     9.752134903276886e-06
0.0367484469     9.752137081992476e-06
0.0368643726     9.752139267592776e-06
0.036980298300000006     9.752141460077795e-06
0.037096224000000004     9.752143659447535e-06
0.0372121497     9.752145865702013e-06
0.0373280754     9.752148078841231e-06
0.0374440011     9.752150298865202e-06
0.037559926800000004     9.752152525773933e-06
0.0376758525     9.752154759567436e-06
0.0377917782     9.752157000245716e-06
0.0379077039     9.752159247808785e-06
0.038023629600000004     9.752161502256653e-06
0.0381395553     9.752163763589321e-06
0.038255481     9.75216603180681e-06
0.0383714067     9.752168306909118e-06
0.038487332400000004     9.75217058889626e-06
0.0386032581     9.752172877768249e-06
0.0387191838     9.752175173525087e-06
0.0388351095     9.752177476166785e-06
0.038951035200000005     9.752179785693356e-06
0.0390669609     9.752182102104803e-06
0.0391828866     9.752184425401143e-06
0.0392988123     9.752186755582377e-06
0.039414738000000005     9.752189092648523e-06
0.0395306637     9.752191436599584e-06
0.0396465894     9.752193787435572e-06
0.0397625151     9.752196145156497e-06
0.039878440800000005     9.752198509762365e-06
0.0399943665     9.75220088125319e-06
0.0401102922     9.752203259628978e-06
0.0402262179     9.752205644889742e-06
0.040342143600000005     9.752208037035485e-06
0.0404580693     9.752210436066228e-06
0.040573995     9.752212841981972e-06
0.0406899207     9.752215254782725e-06
0.040805846400000005     9.752217674468505e-06
0.0409217721     9.752220101039315e-06
0.0410376978     9.75222253449517e-06
0.0411536235     9.752224974836074e-06
0.041269549200000005     9.75222742206204e-06
0.041385474900000004     9.752229876173077e-06
0.0415014006     9.752232337169195e-06
0.0416173263     9.752234805050407e-06
0.041733252000000005     9.752237279816717e-06
0.041849177700000004     9.75223976146814e-06
0.0419651034     9.752242250004683e-06
0.0420810291     9.752244745426358e-06
0.042196954800000006     9.752247247733176e-06
0.042312880500000004     9.752249756925142e-06
0.0424288062     9.75225227300227e-06
0.0425447319     9.752254795964571e-06
0.042660657600000006     9.752257325812054e-06
0.042776583300000004     9.752259862544729e-06
0.042892509     9.752262406162606e-06
0.0430084347     9.752264956665693e-06
0.043124360400000006     9.752267514054005e-06
0.043240286100000004     9.752270078327548e-06
0.0433562118     9.752272649486338e-06
0.0434721375     9.752275227530378e-06
0.043588063200000006     9.752277812459685e-06
0.043703988900000004     9.752280404274265e-06
0.0438199146     9.752283002974127e-06
0.0439358403     9.752285608559288e-06
0.044051766000000006     9.752288221029756e-06
0.044167691700000004     9.752290840385535e-06
0.0442836174     9.752293466626648e-06
0.0443995431     9.752296099753092e-06
0.0445154688     9.75229873976489e-06
0.044631394500000005     9.75230138666204e-06
0.0447473202     9.752304040444564e-06
0.0448632459     9.752306701112468e-06
0.0449791716     9.752309368665764e-06
0.045095097300000005     9.752312043104457e-06
0.045211023     9.752314724428567e-06
0.0453269487     9.752317412638095e-06
0.0454428744     9.752320107733063e-06
0.045558800100000005     9.75232280971347e-06
0.0456747258     9.752325518579337e-06
0.0457906515     9.75232823433067e-06
0.0459065772     9.752330956967478e-06
0.046022502900000005     9.752333686489777e-06
0.0461384286     9.752336422897577e-06
0.0462543543     9.752339166190881e-06
0.04637028     9.752341916369714e-06
0.046486205700000005     9.752344673434075e-06
0.0466021314     9.75234743738398e-06
0.0467180571     9.752350208219443e-06
0.0468339828     9.75235298594047e-06
0.046949908500000005     9.752355770547077e-06
0.047065834200000004     9.75235856203927e-06
0.0471817599     9.752361360417063e-06
0.0472976856     9.752364165680466e-06
0.047413611300000005     9.75236697782949e-06
0.047529537000000004     9.752369796864152e-06
0.0476454627     9.752372622784454e-06
0.0477613884     9.752375455590415e-06
0.047877314100000005     9.752378295282043e-06
0.047993239800000004     9.752381141859353e-06
0.0481091655     9.752383995322352e-06
0.0482250912     9.75238685567105e-06
0.048341016900000006     9.752389722905466e-06
0.048456942600000004     9.752392597025606e-06
0.0485728683     9.752395478031483e-06
0.048688794     9.752398365923107e-06
0.048804719700000006     9.752401260700493e-06
0.048920645400000004     9.75240416236365e-06
0.0490365711     9.75240707091259e-06
0.0491524968     9.752409986347325e-06
0.049268422500000006     9.752412908667867e-06
0.049384348200000004     9.752415837874227e-06
0.0495002739     9.75241877396642e-06
0.0496161996     9.75242171694445e-06
0.049732125300000006     9.752424666808338e-06
0.049848051000000004     9.752427623558094e-06
0.0499639767     9.752430587193726e-06
0.0500799024     9.752433557715246e-06
0.050195828100000006     9.75243653512267e-06
0.050311753800000004     9.752439519416009e-06
0.0504276795     9.752442510595269e-06
0.0505436052     9.752445508660473e-06
0.050659530900000006     9.75244851361162e-06
0.050775456600000005     9.752451525448736e-06
0.0508913823     9.75245454417182e-06
0.051007308     9.752457569780894e-06
0.051123233700000006     9.75246060227597e-06
0.051239159400000005     9.752463641657048e-06
0.0513550851     9.752466687924158e-06
0.0514710108     9.752469741077298e-06
0.05158693650000001     9.752472801116487e-06
0.051702862200000005     9.752475868041733e-06
0.0518187879     9.752478941853058e-06
0.0519347136     9.75248202255046e-06
0.0520506393     9.752485110133964e-06
0.052166565000000005     9.752488204603577e-06
0.0522824907     9.752491305959313e-06
0.0523984164     9.752494414201178e-06
0.0525143421     9.752497529329195e-06
0.052630267800000005     9.75250065134337e-06
0.0527461935     9.752503780243717e-06
0.0528621192     9.75250691603025e-06
0.0529780449     9.752510058702977e-06
0.053093970600000005     9.752513208261916e-06
0.053209896300000004     9.75251636470708e-06
0.053325822     9.752519528038476e-06
0.0534417477     9.752522698256122e-06
0.053557673400000005     9.752525875360028e-06
0.053673599100000004     9.752529059350209e-06
0.0537895248     9.752532250226676e-06
0.0539054505     9.752535447989442e-06
0.054021376200000006     9.752538652638519e-06
0.054137301900000004     9.752541864173922e-06
0.0542532276     9.752545082595667e-06
0.0543691533     9.752548307903759e-06
0.054485079000000006     9.752551540098216e-06
0.054601004700000004     9.75255477917905e-06
0.0547169304     9.752558025146274e-06
0.0548328561     9.752561277999903e-06
0.054948781800000006     9.752564537739946e-06
