Energy[eV]     Absorp.[arb.units]
0.0     2.0224222907483492e-05
0.000167504     2.022422291772083e-05
0.000335008     2.0224222948432836e-05
0.000502512     2.0224222999619508e-05
0.000670016     2.0224223071280856e-05
0.0008375199999999999     2.0224223163416865e-05
0.001005024     2.022422327602756e-05
0.001172528     2.0224223409112914e-05
0.001340032     2.0224223562672946e-05
0.0015075359999999999     2.022422373670765e-05
0.0016750399999999998     2.022422393121703e-05
0.0018425439999999998     2.0224224146201076e-05
0.002010048     2.0224224381659813e-05
0.0021775519999999997     2.0224224637593217e-05
0.002345056     2.0224224914001304e-05
0.0025125599999999996     2.0224225210884072e-05
0.002680064     2.022422552824152e-05
0.002847568     2.0224225866073652e-05
0.0030150719999999997     2.0224226224380474e-05
0.003182576     2.0224226603161987e-05
0.0033500799999999996     2.0224227002418183e-05
0.003517584     2.022422742214907e-05
0.0036850879999999996     2.0224227862354654e-05
0.0038525919999999997     2.0224228323034936e-05
0.004020096     2.0224228804189918e-05
0.0041876     2.0224229305819597e-05
0.004355103999999999     2.0224229827923994e-05
0.004522608     2.0224230370503088e-05
0.004690112     2.022423093355689e-05
0.0048576159999999995     2.0224231517085415e-05
0.005025119999999999     2.0224232121088648e-05
0.005192624     2.0224232745566602e-05
0.005360128     2.0224233390519284e-05
0.005527631999999999     2.0224234055946697e-05
0.005695136     2.0224234741848828e-05
0.00586264     2.022423544822571e-05
0.0060301439999999994     2.022423617507733e-05
0.006197647999999999     2.0224236922403677e-05
0.006365152     2.022423769020478e-05
0.0065326559999999995     2.0224238478480637e-05
0.006700159999999999     2.0224239287231246e-05
0.006867664     2.022424011645662e-05
0.007035168     2.022424096615675e-05
0.007202671999999999     2.0224241836331656e-05
0.007370175999999999     2.0224242726981328e-05
0.00753768     2.022424363810579e-05
0.0077051839999999995     2.0224244569705032e-05
0.007872688     2.0224245521779053e-05
0.008040192     2.0224246494327877e-05
0.008207695999999999     2.02242474873515e-05
0.0083752     2.0224248500849928e-05
0.008542704     2.022424953482316e-05
0.008710207999999999     2.0224250589271215e-05
0.008877712     2.0224251664194094e-05
0.009045216     2.02242527595918e-05
0.009212719999999999     2.0224253875464333e-05
0.009380224     2.0224255011811714e-05
0.009547728     2.022425616863393e-05
0.009715231999999999     2.0224257345931015e-05
0.009882736     2.022425854370295e-05
0.010050239999999998     2.022425976194975e-05
0.010217743999999999     2.0224261000671425e-05
0.010385248     2.022426225986798e-05
0.010552751999999999     2.0224263539539426e-05
0.010720256     2.0224264839685753e-05
0.01088776     2.0224266160306988e-05
0.011055263999999999     2.022426750140313e-05
0.011222768     2.022426886297419e-05
0.011390272     2.0224270245020174e-05
0.011557775999999999     2.0224271647541085e-05
0.01172528     2.0224273070536928e-05
0.011892783999999998     2.022427451400773e-05
0.012060287999999999     2.0224275977953474e-05
0.012227792     2.0224277462374187e-05
0.012395295999999998     2.0224278967269866e-05
0.012562799999999999     2.0224280492640526e-05
0.012730304     2.0224282038486175e-05
0.012897807999999998     2.0224283604806806e-05
0.013065311999999999     2.0224285191602455e-05
0.013232816     2.0224286798873114e-05
0.013400319999999999     2.0224288426618785e-05
0.013567824     2.0224290074839496e-05
0.013735328     2.0224291743535243e-05
0.013902831999999999     2.022429343270604e-05
0.014070336     2.0224295142351895e-05
0.014237839999999998     2.022429687247282e-05
0.014405343999999999     2.022429862306882e-05
0.014572848     2.0224300394139903e-05
0.014740351999999998     2.022430218568609e-05
0.014907855999999999     2.0224303997707373e-05
0.01507536     2.022430583020378e-05
0.015242863999999998     2.0224307683175313e-05
0.015410367999999999     2.0224309556621982e-05
0.015577872     2.0224311450543793e-05
0.015745376     2.022431336494076e-05
0.015912879999999997     2.0224315299812902e-05
0.016080384     2.0224317255160214e-05
0.016247888     2.0224319230982724e-05
0.016415391999999997     2.022432122728043e-05
0.016582896     2.022432324405334e-05
0.0167504     2.0224325281301485e-05
0.016917903999999997     2.022432733902486e-05
0.017085408     2.0224329417223478e-05
0.017252912     2.0224331515897353e-05
0.017420415999999998     2.0224333635046492e-05
0.01758792     2.0224335774670907e-05
0.017755424     2.0224337934770622e-05
0.017922927999999998     2.0224340115345638e-05
0.018090432     2.022434231639596e-05
0.018257936     2.022434453792162e-05
0.018425439999999998     2.022434677992262e-05
0.018592944     2.0224349042398966e-05
0.018760448     2.0224351325350673e-05
0.018927951999999998     2.0224353628777768e-05
0.019095456     2.0224355952680242e-05
0.01926296     2.0224358297058118e-05
0.019430463999999998     2.0224360661911416e-05
0.019597967999999997     2.022436304724014e-05
0.019765472     2.0224365453044303e-05
0.019932975999999998     2.0224367879323926e-05
0.020100479999999997     2.0224370326079015e-05
0.020267984     2.022437279330958e-05
0.020435487999999998     2.0224375281015646e-05
0.020602991999999997     2.0224377789197212e-05
0.020770496     2.022438031785431e-05
0.020938     2.0224382866986936e-05
0.021105503999999997     2.0224385436595118e-05
0.021273008     2.022438802667886e-05
0.021440512     2.022439063723819e-05
0.021608015999999997     2.0224393268273105e-05
0.02177552     2.0224395919783633e-05
0.021943024     2.0224398591769784e-05
0.022110527999999997     2.0224401284231567e-05
0.022278032     2.0224403997168996e-05
0.022445536     2.0224406730582108e-05
0.022613039999999997     2.022440948447089e-05
0.022780544     2.022441225883537e-05
0.022948048     2.0224415053675556e-05
0.023115551999999998     2.0224417868991482e-05
0.023283056     2.0224420704783146e-05
0.02345056     2.0224423561050574e-05
0.023618063999999998     2.022442643779377e-05
0.023785567999999997     2.0224429335012754e-05
0.023953072     2.0224432252707553e-05
0.024120575999999998     2.0224435190878165e-05
0.024288079999999997     2.0224438149524622e-05
0.024455584     2.022444112864693e-05
0.024623087999999998     2.022444412824511e-05
0.024790591999999997     2.0224447148319187e-05
0.024958096     2.022445018886915e-05
0.025125599999999998     2.022445324989505e-05
0.025293103999999997     2.022445633139688e-05
0.025460608     2.022445943337467e-05
0.025628111999999998     2.022446255582843e-05
0.025795615999999997     2.0224465698758173e-05
0.02596312     2.0224468862163932e-05
0.026130623999999998     2.0224472046045706e-05
0.026298127999999997     2.0224475250403526e-05
0.026465632     2.0224478475237402e-05
0.026633135999999998     2.0224481720547364e-05
0.026800639999999997     2.022448498633341e-05
0.026968144     2.022448827259557e-05
0.027135648     2.0224491579333867e-05
0.027303151999999997     2.0224494906548317e-05
0.027470656     2.022449825423892e-05
0.02763816     2.0224501622405714e-05
0.027805663999999997     2.0224505011048718e-05
0.027973167999999996     2.0224508420167943e-05
0.028140672     2.02245118497634e-05
0.028308175999999997     2.0224515299835132e-05
0.028475679999999996     2.0224518770383142e-05
0.028643184     2.022452226140744e-05
0.028810687999999997     2.022452577290807e-05
0.028978191999999996     2.022452930488502e-05
0.029145696     2.022453285733834e-05
0.029313199999999998     2.0224536430268025e-05
0.029480703999999996     2.0224540023674112e-05
0.029648208     2.0224543637556614e-05
0.029815711999999998     2.0224547271915558e-05
0.029983215999999997     2.0224550926750954e-05
0.03015072     2.0224554602062823e-05
0.030318223999999998     2.0224558297851185e-05
0.030485727999999997     2.0224562014116064e-05
0.030653232     2.022456575085749e-05
0.030820735999999998     2.022456950807547e-05
0.030988239999999997     2.0224573285770026e-05
0.031155744     2.022457708394118e-05
0.031323248     2.0224580902588945e-05
0.031490752     2.0224584741713364e-05
0.031658255999999996     2.022458860131444e-05
0.031825759999999995     2.02245924813922e-05
0.031993264     2.0224596381946663e-05
0.032160768     2.0224600302977854e-05
0.032328272     2.0224604244485795e-05
0.032495776     2.0224608206470503e-05
0.032663279999999996     2.0224612188932e-05
0.032830783999999995     2.0224616191870313e-05
0.032998288     2.022462021528546e-05
0.033165792     2.022462425917746e-05
0.033333296     2.0224628323546348e-05
0.0335008     2.0224632408392128e-05
0.033668303999999996     2.022463651371484e-05
0.033835807999999995     2.02246406395145e-05
0.034003312     2.0224644785791123e-05
0.034170816     2.0224648952544746e-05
0.03433832     2.022465313977538e-05
0.034505824     2.022465734748305e-05
0.034673327999999996     2.0224661575667785e-05
0.034840831999999995     2.0224665824329605e-05
0.035008335999999994     2.0224670093468535e-05
0.03517584     2.0224674383084594e-05
0.035343344     2.0224678693177808e-05
0.035510848     2.0224683023748205e-05
0.035678351999999997     2.022468737479581e-05
0.035845855999999995     2.0224691746320627e-05
0.036013359999999994     2.0224696138322712e-05
0.036180864     2.0224700550802062e-05
0.036348368     2.0224704983758716e-05
0.036515872     2.022470943719269e-05
0.036683376     2.0224713911104012e-05
0.036850879999999996     2.0224718405492706e-05
0.037018383999999994     2.0224722920358804e-05
0.037185888     2.022472745570233e-05
0.037353392     2.022473201152329e-05
0.037520896     2.0224736587821727e-05
0.0376884     2.0224741184597666e-05
0.037855903999999996     2.022474580185112e-05
0.038023407999999995     2.0224750439582137e-05
0.038190912     2.022475509779072e-05
0.038358416     2.02247597764769e-05
0.03852592     2.0224764475640718e-05
0.038693424     2.0224769195282174e-05
0.038860927999999996     2.022477393540131e-05
0.039028431999999995     2.0224778695998157e-05
0.039195935999999994     2.022478347707273e-05
0.03936344     2.0224788278625058e-05
0.039530944     2.0224793100655172e-05
0.039698448     2.0224797943163098e-05
0.039865951999999996     2.0224802806148848e-05
0.040033455999999995     2.0224807689612473e-05
0.040200959999999994     2.022481259355398e-05
0.040368464     2.0224817517973407e-05
0.040535968     2.0224822462870776e-05
0.040703472     2.0224827428246116e-05
0.040870975999999996     2.022483241409946e-05
0.041038479999999995     2.0224837420430822e-05
0.041205983999999994     2.022484244724024e-05
0.041373488     2.0224847494527743e-05
0.041540992     2.0224852562293348e-05
0.041708496     2.022485765053709e-05
0.041876     2.0224862759259002e-05
0.042043503999999995     2.0224867888459103e-05
0.042211007999999994     2.0224873038137428e-05
0.042378512     2.0224878208294e-05
0.042546016     2.0224883398928852e-05
0.04271352     2.022488861004201e-05
0.042881024     2.022489384163351e-05
0.043048527999999996     2.022489909370336e-05
0.043216031999999995     2.0224904366251613e-05
0.04338353599999999     2.0224909659278287e-05
0.04355104     2.022491497278341e-05
0.043718544     2.0224920306767014e-05
0.043886048     2.0224925661229123e-05
0.044053551999999996     2.0224931036169782e-05
0.044221055999999995     2.0224936431588998e-05
0.044388559999999994     2.0224941847486824e-05
0.044556064     2.022494728386327e-05
0.044723568     2.0224952740718382e-05
0.044891072     2.022495821805217e-05
0.045058575999999996     2.022496371586469e-05
0.045226079999999995     2.022496923415595e-05
0.045393583999999994     2.022497477292599e-05
0.045561088     2.0224980332174845e-05
0.045728592     2.0224985911902538e-05
0.045896096     2.0224991512109095e-05
0.046063599999999996     2.0224997132794565e-05
0.046231103999999995     2.0225002773958967e-05
0.046398607999999994     2.0225008435602328e-05
0.046566112     2.022501411772468e-05
0.046733616     2.022501982032607e-05
0.04690112     2.0225025543406505e-05
0.047068623999999996     2.022503128696604e-05
0.047236127999999995     2.022503705100469e-05
0.047403631999999994     2.0225042835522496e-05
0.04757113599999999     2.022504864051949e-05
0.04773864     2.022505446599569e-05
0.047906144     2.0225060311951143e-05
0.048073648     2.0225066178385878e-05
0.048241151999999995     2.022507206529993e-05
0.048408655999999994     2.0225077972693322e-05
0.04857615999999999     2.0225083900566094e-05
0.048743664     2.0225089848918274e-05
0.048911168     2.0225095817749897e-05
0.049078672     2.0225101807061005e-05
0.049246175999999996     2.022510781685162e-05
0.049413679999999995     2.0225113847121773e-05
0.04958118399999999     2.0225119897871505e-05
0.049748688     2.0225125969100843e-05
0.049916192     2.0225132060809818e-05
0.050083696     2.022513817299848e-05
0.050251199999999996     2.022514430566685e-05
0.050418703999999995     2.0225150458814956e-05
0.050586207999999994     2.0225156632442846e-05
0.050753712     2.022516282655055e-05
0.050921216     2.022516904113809e-05
0.05108872     2.0225175276205514e-05
0.051256223999999996     2.022518153175285e-05
0.051423727999999995     2.0225187807780135e-05
0.051591231999999994     2.0225194104287406e-05
0.05175873599999999     2.0225200421274693e-05
0.05192624     2.0225206758742028e-05
0.052093744     2.0225213116689457e-05
0.052261247999999996     2.0225219495117005e-05
0.052428751999999995     2.0225225894024718e-05
0.052596255999999994     2.0225232313412614e-05
0.05276375999999999     2.0225238753280743e-05
0.052931264     2.0225245213629137e-05
0.053098768     2.0225251694457828e-05
0.053266271999999996     2.0225258195766854e-05
0.053433775999999995     2.0225264717556252e-05
0.053601279999999994     2.022527125982605e-05
0.05376878399999999     2.022527782257629e-05
0.053936288     2.0225284405807018e-05
0.054103792     2.022529100951825e-05
0.054271296     2.0225297633710047e-05
0.054438799999999996     2.0225304278382425e-05
0.054606303999999994     2.022531094353542e-05
0.05477380799999999     2.0225317629169088e-05
0.054941312     2.0225324335283454e-05
0.055108816     2.0225331061878548e-05
0.05527632     2.0225337808954414e-05
0.055443823999999996     2.022534457651109e-05
0.055611327999999995     2.0225351364548615e-05
0.055778831999999993     2.022535817306702e-05
0.05594633599999999     2.022536500206636e-05
0.05611384     2.022537185154664e-05
0.056281344     2.0225378721507924e-05
0.056448847999999996     2.0225385611950246e-05
0.056616351999999995     2.022539252287363e-05
0.056783855999999994     2.0225399454278137e-05
0.05695135999999999     2.022540640616378e-05
0.057118864     2.022541337853063e-05
0.057286368     2.0225420371378688e-05
0.057453871999999996     2.0225427384708007e-05
0.057621375999999995     2.0225434418518648e-05
0.057788879999999994     2.0225441472810613e-05
0.05795638399999999     2.0225448547583964e-05
0.058123888     2.022545564283873e-05
0.058291392     2.0225462758574956e-05
0.058458895999999996     2.022546989479268e-05
0.058626399999999995     2.0225477051491948e-05
0.058793903999999994     2.0225484228672788e-05
0.05896140799999999     2.0225491426335233e-05
0.059128912     2.0225498644479342e-05
0.059296416     2.0225505883105145e-05
0.059463919999999997     2.0225513142212685e-05
0.059631423999999995     2.0225520421801997e-05
0.059798927999999994     2.0225527721873125e-05
0.05996643199999999     2.022553504242611e-05
0.06013393599999999     2.022554238346099e-05
0.06030144     2.0225549744977795e-05
0.060468944     2.0225557126976592e-05
0.060636447999999996     2.02255645294574e-05
0.060803951999999994     2.0225571952420267e-05
0.06097145599999999     2.0225579395865233e-05
0.06113895999999999     2.0225586859792336e-05
0.061306464     2.022559434420162e-05
0.061473968     2.022560184909313e-05
0.061641471999999996     2.0225609374466896e-05
0.061808975999999995     2.0225616920322973e-05
0.061976479999999994     2.0225624486661395e-05
0.06214398399999999     2.0225632073482205e-05
0.062311488     2.0225639680785443e-05
0.062478992     2.0225647308571152e-05
0.062646496     2.022565495683938e-05
0.062814     2.0225662625590164e-05
0.062981504     2.0225670314823545e-05
0.06314900799999999     2.0225678024539563e-05
0.06331651199999999     2.0225685754738266e-05
0.06348401599999999     2.0225693505419694e-05
0.06365151999999999     2.022570127658389e-05
0.063819024     2.02257090682309e-05
0.063986528     2.0225716880360762e-05
0.064154032     2.022572471297352e-05
0.064321536     2.0225732566069218e-05
0.06448904     2.0225740439647906e-05
0.064656544     2.0225748333709615e-05
0.064824048     2.0225756248254395e-05
0.064991552     2.0225764183282284e-05
0.06515905599999999     2.022577213879334e-05
0.06532655999999999     2.0225780114787585e-05
0.06549406399999999     2.022578811126508e-05
0.06566156799999999     2.0225796128225875e-05
0.06582907199999999     2.022580416567e-05
0.065996576     2.0225812223597496e-05
0.06616408     2.022582030200841e-05
0.066331584     2.02258284009028e-05
0.066499088     2.0225836520280705e-05
0.066666592     2.0225844660142164e-05
0.066834096     2.0225852820487213e-05
0.0670016     2.0225861001315915e-05
0.067169104     2.0225869202628317e-05
0.06733660799999999     2.022587742442444e-05
0.06750411199999999     2.022588566670435e-05
0.06767161599999999     2.0225893929468087e-05
0.06783911999999999     2.02259022127157e-05
0.068006624     2.0225910516447226e-05
0.068174128     2.022591884066272e-05
0.068341632     2.022592718536222e-05
0.068509136     2.0225935550545776e-05
0.06867664     2.022594393621343e-05
0.068844144     2.022595234236524e-05
0.069011648     2.022596076900124e-05
0.069179152     2.022596921612148e-05
0.06934665599999999     2.0225977683726008e-05
0.06951415999999999     2.0225986171814868e-05
0.06968166399999999     2.0225994680388108e-05
0.06984916799999999     2.0226003209445777e-05
0.07001667199999999     2.022601175898792e-05
0.070184176     2.0226020329014587e-05
0.07035168     2.0226028919525817e-05
0.070519184     2.0226037530521665e-05
0.070686688     2.022604616200218e-05
0.070854192     2.0226054813967397e-05
0.071021696     2.022606348641739e-05
0.0711892     2.0226072179352175e-05
0.07135670399999999     2.0226080892771813e-05
0.07152420799999999     2.0226089626676363e-05
0.07169171199999999     2.0226098381065856e-05
0.07185921599999999     2.022610715594035e-05
0.07202671999999999     2.0226115951299888e-05
0.072194224     2.0226124767144525e-05
0.072361728     2.0226133603474305e-05
0.072529232     2.0226142460289275e-05
0.072696736     2.022615133758949e-05
0.07286424     2.0226160235374996e-05
0.073031744     2.022616915364584e-05
0.073199248     2.0226178092402068e-05
0.073366752     2.022618705164375e-05
0.07353425599999999     2.02261960313709e-05
0.07370175999999999     2.0226205031583592e-05
0.07386926399999999     2.0226214052281866e-05
0.07403676799999999     2.022622309346579e-05
0.07420427199999999     2.0226232155135386e-05
0.074371776     2.022624123729073e-05
0.07453928     2.0226250339931848e-05
0.074706784     2.022625946305881e-05
0.074874288     2.022626860667165e-05
0.075041792     2.0226277770770428e-05
0.075209296     2.0226286955355198e-05
0.0753768     2.0226296160426003e-05
0.07554430399999999     2.0226305385982892e-05
0.07571180799999999     2.022631463202593e-05
0.07587931199999999     2.0226323898555152e-05
0.07604681599999999     2.022633318557061e-05
0.07621431999999999     2.0226342493072368e-05
0.076381824     2.0226351821060467e-05
0.076549328     2.022636116953496e-05
0.076716832     2.02263705384959e-05
0.076884336     2.022637992794334e-05
0.07705184     2.0226389337877323e-05
0.077219344     2.0226398768297912e-05
0.077386848     2.0226408219205156e-05
0.077554352     2.0226417690599108e-05
0.07772185599999999     2.022642718247981e-05
0.07788935999999999     2.022643669484733e-05
0.07805686399999999     2.02264462277017e-05
