Energy[eV]     Absorp.[arb.units]
0.0     2.0227806385763293e-05
0.0001675188     2.022780639604746e-05
0.0003350376     2.0227806426899963e-05
0.0005025564     2.0227806478320813e-05
0.0006700752     2.0227806550309997e-05
0.000837594     2.0227806642867513e-05
0.0010051128     2.0227806755993375e-05
0.0011726316     2.022780688968758e-05
0.0013401504     2.0227807043950116e-05
0.0015076692     2.0227807218780993e-05
0.001675188     2.022780741418023e-05
0.0018427068     2.022780763014779e-05
0.0020102256     2.0227807866683707e-05
0.0021777444     2.0227808123787965e-05
0.0023452632     2.0227808401460574e-05
0.002512782     2.0227808699701532e-05
0.0026803008     2.0227809018510835e-05
0.0028478196     2.0227809357888497e-05
0.0030153384     2.022780971783451e-05
0.0031828572     2.0227810098348884e-05
0.003350376     2.0227810499431616e-05
0.0035178948     2.0227810921082706e-05
0.0036854136     2.0227811363302165e-05
0.0038529324     2.0227811826089983e-05
0.0040204512     2.0227812309446183e-05
0.00418797     2.0227812813370742e-05
0.0043554888     2.0227813337863677e-05
0.0045230076     2.0227813882924998e-05
0.0046905264     2.0227814448554688e-05
0.0048580452     2.0227815034752773e-05
0.005025564     2.022781564151923e-05
0.0051930828     2.0227816268854092e-05
0.0053606016     2.022781691675735e-05
0.005528120399999999     2.022781758522901e-05
0.0056956392     2.0227818274269057e-05
0.005863157999999999     2.022781898387751e-05
0.0060306768     2.0227819714054384e-05
0.006198195599999999     2.022782046479967e-05
0.0063657144     2.0227821236113365e-05
0.0065332331999999995     2.0227822027995496e-05
0.006700752     2.022782284044605e-05
0.0068682707999999995     2.0227823673465037e-05
0.0070357896     2.0227824527052454e-05
0.0072033083999999995     2.0227825401208324e-05
0.0073708272     2.0227826295932638e-05
0.007538346     2.0227827211225396e-05
0.0077058648     2.0227828147086617e-05
0.0078733836     2.0227829103516305e-05
0.0080409024     2.0227830080514448e-05
0.0082084212     2.022783107808108e-05
0.00837594     2.022783209621619e-05
0.008543458799999999     2.022783313491978e-05
0.0087109776     2.0227834194191864e-05
0.0088784964     2.0227835274032447e-05
0.0090460152     2.0227836374441524e-05
0.009213533999999999     2.022783749541912e-05
0.0093810528     2.0227838636965233e-05
0.0095485716     2.022783979907986e-05
0.0097160904     2.022784098176303e-05
0.009883609199999999     2.022784218501473e-05
0.010051128     2.022784340883498e-05
0.0102186468     2.0227844653223766e-05
0.0103861656     2.0227845918181126e-05
0.010553684399999999     2.022784720370704e-05
0.0107212032     2.0227848509801536e-05
0.010888722     2.0227849836464602e-05
0.011056240799999999     2.0227851183696258e-05
0.0112237596     2.0227852551496506e-05
0.0113912784     2.0227853939865364e-05
0.0115587972     2.022785534880283e-05
0.011726315999999999     2.0227856778308915e-05
0.0118938348     2.022785822838364e-05
0.0120613536     2.0227859699026982e-05
0.0122288724     2.0227861190238975e-05
0.012396391199999999     2.022786270201962e-05
0.01256391     2.0227864234368932e-05
0.0127314288     2.0227865787286907e-05
0.0128989476     2.022786736077356e-05
0.013066466399999999     2.0227868954828914e-05
0.0132339852     2.0227870569452957e-05
0.013401504     2.022787220464571e-05
0.013569022799999999     2.022787386040717e-05
0.013736541599999999     2.0227875536737367e-05
0.0139040604     2.022787723363629e-05
0.0140715792     2.0227878951103962e-05
0.014239097999999999     2.0227880689140387e-05
0.014406616799999999     2.022788244774558e-05
0.0145741356     2.022788422691955e-05
0.0147416544     2.0227886026662298e-05
0.014909173199999999     2.0227887846973852e-05
0.015076692     2.022788968785421e-05
0.0152442108     2.0227891549303376e-05
0.0154117296     2.0227893431321375e-05
0.015579248399999999     2.022789533390821e-05
0.0157467672     2.0227897257063896e-05
0.015914286     2.0227899200788442e-05
0.0160818048     2.022790116508186e-05
0.0162493236     2.0227903149944162e-05
0.0164168424     2.0227905155375353e-05
0.016584361199999998     2.022790718137546e-05
0.01675188     2.0227909227944475e-05
0.0169193988     2.022791129508242e-05
0.017086917599999998     2.0227913382789305e-05
0.0172544364     2.0227915491065143e-05
0.0174219552     2.0227917619909956e-05
0.017589474     2.0227919769323734e-05
0.0177569928     2.0227921939306505e-05
0.017924511599999998     2.0227924129858285e-05
0.0180920304     2.022792634097907e-05
0.0182595492     2.0227928572668892e-05
0.018427067999999998     2.0227930824927744e-05
0.0185945868     2.022793309775566e-05
0.0187621056     2.022793539115263e-05
0.018929624399999997     2.022793770511869e-05
0.0190971432     2.0227940039653833e-05
0.019264662     2.022794239475809e-05
0.0194321808     2.022794477043146e-05
0.0195996996     2.022794716667397e-05
0.019767218399999998     2.0227949583485633e-05
0.0199347372     2.0227952020866445e-05
0.020102256     2.0227954478816437e-05
0.020269774799999998     2.0227956957335624e-05
0.0204372936     2.0227959456424e-05
0.0206048124     2.022796197608161e-05
0.0207723312     2.022796451630844e-05
0.02093985     2.0227967077104525e-05
0.021107368799999998     2.0227969658469866e-05
0.0212748876     2.0227972260404484e-05
0.0214424064     2.02279748829084e-05
0.021609925199999998     2.0227977525981616e-05
0.021777444     2.0227980189624157e-05
0.0219449628     2.0227982873836035e-05
0.022112481599999997     2.022798557861726e-05
0.0222800004     2.0227988303967864e-05
0.0224475192     2.022799104988784e-05
0.022615038     2.022799381637722e-05
0.0227825568     2.0227996603436025e-05
0.022950075599999998     2.0227999411064246e-05
0.0231175944     2.0228002239261924e-05
0.0232851132     2.022800508802906e-05
0.023452631999999998     2.0228007957365683e-05
0.0236201508     2.0228010847271798e-05
0.0237876696     2.022801375774743e-05
0.0239551884     2.0228016688792587e-05
0.0241227072     2.0228019640407295e-05
0.024290225999999998     2.0228022612591565e-05
0.0244577448     2.0228025605345423e-05
0.0246252636     2.0228028618668863e-05
0.024792782399999998     2.0228031652561936e-05
0.0249603012     2.0228034707024635e-05
0.02512782     2.0228037782056983e-05
0.025295338799999997     2.0228040877659005e-05
0.0254628576     2.0228043993830707e-05
0.025630376399999998     2.0228047130572116e-05
0.0257978952     2.0228050287883246e-05
0.025965414     2.0228053465764124e-05
0.026132932799999998     2.0228056664214746e-05
0.0263004516     2.0228059883235154e-05
0.0264679704     2.022806312282536e-05
0.026635489199999998     2.022806638298537e-05
0.026803008     2.022806966371522e-05
0.0269705268     2.022807296501492e-05
0.027138045599999997     2.022807628688449e-05
0.0273055644     2.022807962932395e-05
0.027473083199999998     2.0228082992333316e-05
0.027640602     2.0228086375912618e-05
0.0278081208     2.022808978006186e-05
0.027975639599999998     2.0228093204781072e-05
0.0281431584     2.0228096650070275e-05
0.0283106772     2.0228100115929476e-05
0.028478195999999997     2.0228103602358717e-05
0.0286457148     2.022810710935799e-05
0.028813233599999998     2.0228110636927337e-05
0.0289807524     2.022811418506677e-05
0.0291482712     2.022811775377632e-05
0.029315789999999998     2.0228121343055985e-05
0.0294833088     2.022812495290581e-05
0.0296508276     2.0228128583325794e-05
0.029818346399999997     2.022813223431597e-05
0.0299858652     2.0228135905876366e-05
0.030153384     2.0228139598006986e-05
0.030320902799999997     2.022814331070786e-05
0.0304884216     2.0228147043979024e-05
0.030655940399999998     2.0228150797820466e-05
0.0308234592     2.0228154572232235e-05
0.030990978     2.022815836721434e-05
0.031158496799999998     2.0228162182766813e-05
0.0313260156     2.0228166018889662e-05
0.0314935344     2.0228169875582927e-05
0.0316610532     2.0228173752846604e-05
0.031828572     2.0228177650680743e-05
0.0319960908     2.0228181569085356e-05
0.0321636096     2.0228185508060465e-05
0.0323311284     2.0228189467606077e-05
0.0324986472     2.022819344772224e-05
0.032666165999999996     2.0228197448408975e-05
0.0328336848     2.022820146966628e-05
0.0330012036     2.022820551149421e-05
0.033168722399999996     2.022820957389277e-05
0.0333362412     2.022821365686197e-05
0.03350376     2.0228217760401867e-05
0.033671278799999996     2.022822188451246e-05
0.0338387976     2.022822602919378e-05
0.0340063164     2.022823019444585e-05
0.034173835199999995     2.0228234380268706e-05
0.034341354     2.0228238586662346e-05
0.0345088728     2.0228242813626824e-05
0.0346763916     2.022824706116214e-05
0.0348439104     2.0228251329268324e-05
0.0350114292     2.022825561794541e-05
0.035178948     2.022825992719342e-05
0.0353464668     2.022826425701237e-05
0.0355139856     2.022826860740229e-05
0.0356815044     2.0228272978363214e-05
0.035849023199999996     2.0228277369895146e-05
0.036016542     2.022828178199814e-05
0.0361840608     2.022828621467219e-05
0.036351579599999996     2.0228290667917355e-05
0.0365190984     2.0228295141733634e-05
0.0366866172     2.0228299636121054e-05
0.036854135999999996     2.022830415107965e-05
0.0370216548     2.022830868660945e-05
0.0371891736     2.022831324271048e-05
0.037356692399999995     2.0228317819382757e-05
0.0375242112     2.0228322416626312e-05
0.03769173     2.022832703444118e-05
0.037859248799999995     2.0228331672827373e-05
0.0380267676     2.0228336331784926e-05
0.0381942864     2.0228341011313866e-05
0.0383618052     2.0228345711414215e-05
0.038529324     2.0228350432086005e-05
0.0386968428     2.0228355173329254e-05
0.0388643616     2.022835993514401e-05
0.039031880399999996     2.0228364717530286e-05
0.0391993992     2.022836952048809e-05
0.039366918     2.022837434401749e-05
0.039534436799999996     2.0228379188118496e-05
0.0397019556     2.0228384052791122e-05
0.0398694744     2.0228388938035414e-05
0.040036993199999996     2.02283938438514e-05
0.040204512     2.022839877023909e-05
0.0403720308     2.0228403717198527e-05
0.040539549599999995     2.022840868472974e-05
0.0407070684     2.0228413672832754e-05
0.0408745872     2.02284186815076e-05
0.041042105999999995     2.02284237107543e-05
0.0412096248     2.0228428760572887e-05
0.0413771436     2.0228433830963395e-05
0.0415446624     2.0228438921925847e-05
0.0417121812     2.0228444033460276e-05
0.0418797     2.022844916556671e-05
0.0420472188     2.0228454318245175e-05
0.042214737599999996     2.022845949149571e-05
0.0423822564     2.0228464685318328e-05
0.0425497752     2.022846989971308e-05
0.042717293999999996     2.022847513467998e-05
0.0428848128     2.0228480390219066e-05
0.0430523316     2.022848566633037e-05
0.043219850399999996     2.0228490963013913e-05
0.0433873692     2.022849628026973e-05
0.043554888     2.0228501618097845e-05
0.043722406799999995     2.0228506976498306e-05
0.0438899256     2.022851235547114e-05
0.0440574444     2.0228517755016358e-05
0.044224963199999995     2.0228523175134007e-05
0.044392482     2.022852861582412e-05
0.0445600008     2.0228534077086718e-05
0.0447275196     2.0228539558921847e-05
0.0448950384     2.022854506132953e-05
0.0450625572     2.0228550584309796e-05
0.045230076     2.0228556127862677e-05
0.045397594799999996     2.022856169198821e-05
0.0455651136     2.0228567276686427e-05
0.0457326324     2.022857288195736e-05
0.045900151199999996     2.022857850780103e-05
0.04606767     2.0228584154217477e-05
0.0462351888     2.022858982120674e-05
0.046402707599999996     2.0228595508768847e-05
0.0465702264     2.0228601216903824e-05
0.0467377452     2.022860694561172e-05
0.046905263999999995     2.022861269489255e-05
0.0470727828     2.0228618464746355e-05
0.0472403016     2.0228624255173172e-05
0.047407820399999995     2.022863006617303e-05
0.0475753392     2.0228635897745952e-05
0.047742858     2.0228641749891994e-05
0.0479103768     2.0228647622611175e-05
0.0480778956     2.0228653515903533e-05
0.0482454144     2.0228659429769104e-05
0.0484129332     2.0228665364207914e-05
0.048580451999999996     2.022867131922e-05
0.0487479708     2.0228677294805405e-05
0.0489154896     2.0228683290964137e-05
0.049083008399999996     2.0228689307696277e-05
0.0492505272     2.0228695345001816e-05
0.049418046     2.02287014028808e-05
0.049585564799999995     2.022870748133329e-05
0.0497530836     2.0228713580359278e-05
0.0499206024     2.022871969995883e-05
0.050088121199999995     2.022872584013198e-05
0.05025564     2.022873200087875e-05
0.0504231588     2.022873818219918e-05
0.050590677599999995     2.022874438409331e-05
0.0507581964     2.022875060656116e-05
0.0509257152     2.022875684960279e-05
0.051093233999999994     2.022876311321822e-05
0.051260752799999997     2.0228769397407493e-05
0.0514282716     2.022877570217064e-05
0.0515957904     2.02287820275077e-05
0.051763309199999996     2.022878837341871e-05
0.051930828     2.0228794739903705e-05
0.0520983468     2.0228801126962715e-05
0.052265865599999996     2.022880753459579e-05
0.0524333844     2.0228813962802965e-05
0.0526009032     2.0228820411584266e-05
0.052768421999999995     2.0228826880939737e-05
0.0529359408     2.022883337086941e-05
0.0531034596     2.0228839881373345e-05
0.053270978399999995     2.0228846412451538e-05
0.0534384972     2.0228852964104065e-05
0.053606016     2.0228859536330945e-05
0.053773534799999995     2.022886612913222e-05
0.0539410536     2.022887274250793e-05
0.0541085724     2.022887937645811e-05
0.054276091199999994     2.0228886030982792e-05
0.054443609999999996     2.0228892706082037e-05
0.0546111288     2.022889940175585e-05
0.0547786476     2.02289061180043e-05
0.054946166399999996     2.0228912854827404e-05
0.0551136852     2.0228919612225207e-05
0.055281204     2.0228926390197765e-05
0.055448722799999996     2.022893318874509e-05
0.0556162416     2.0228940007867233e-05
0.0557837604     2.022894684756424e-05
0.055951279199999995     2.0228953707836134e-05
0.056118798     2.0228960588682975e-05
0.0562863168     2.022896749010479e-05
0.056453835599999995     2.022897441210161e-05
0.0566213544     2.0228981354673502e-05
0.0567888732     2.0228988317820483e-05
0.056956391999999995     2.0228995301542596e-05
0.0571239108     2.022900230583989e-05
0.0572914296     2.0229009330712393e-05
0.057458948399999994     2.022901637616016e-05
0.057626467199999996     2.0229023442183218e-05
0.057793986     2.022903052878162e-05
0.0579615048     2.02290376359554e-05
0.058129023599999996     2.0229044763704593e-05
0.0582965424     2.0229051912029246e-05
0.0584640612     2.02290590809294e-05
0.058631579999999996     2.022906627040511e-05
0.0587990988     2.022907348045639e-05
0.0589666176     2.0229080711083303e-05
0.059134136399999995     2.0229087962285875e-05
0.0593016552     2.0229095234064157e-05
0.059469174     2.0229102526418195e-05
0.059636692799999995     2.0229109839348024e-05
0.0598042116     2.0229117172853684e-05
0.0599717304     2.0229124526935227e-05
0.060139249199999995     2.022913190159268e-05
0.060306768     2.0229139296826107e-05
0.0604742868     2.0229146712635532e-05
0.060641805599999994     2.0229154149020994e-05
0.060809324399999996     2.0229161605982562e-05
0.0609768432     2.0229169083520255e-05
0.061144362     2.0229176581634123e-05
0.061311880799999996     2.0229184100324214e-05
0.0614793996     2.0229191639590565e-05
0.0616469184     2.0229199199433216e-05
0.061814437199999996     2.022920677985222e-05
0.061981956     2.0229214380847613e-05
0.0621494748     2.022922200241945e-05
0.062316993599999995     2.0229229644567762e-05
0.0624845124     2.0229237307292597e-05
0.0626520312     2.0229244990593996e-05
0.06281955     2.0229252694472012e-05
0.0629870688     2.0229260418926683e-05
0.06315458759999999     2.022926816395806e-05
0.0633221064     2.0229275929566175e-05
0.0634896252     2.0229283715751084e-05
0.063657144     2.022929152251283e-05
0.0638246628     2.0229299349851455e-05
0.0639921816     2.022930719776701e-05
0.06415970039999999     2.0229315066259526e-05
0.0643272192     2.0229322955329057e-05
0.064494738     2.022933086497564e-05
0.0646622568     2.0229338795199352e-05
0.0648297756     2.0229346746000198e-05
0.0649972944     2.0229354717378255e-05
0.06516481319999999     2.0229362709333548e-05
0.06533233199999999     2.0229370721866127e-05
0.0654998508     2.0229378754976058e-05
0.0656673696     2.022938680866335e-05
0.0658348884     2.0229394882928086e-05
0.0660024072     2.022940297777028e-05
0.066169926     2.0229411093190006e-05
0.06633744479999999     2.02294192291873e-05
0.0665049636     2.022942738576221e-05
0.0666724824     2.0229435562914775e-05
0.0668400012     2.0229443760645054e-05
0.06700752     2.0229451978953097e-05
0.0671750388     2.0229460217838928e-05
0.06734255759999999     2.0229468477302614e-05
0.0675100764     2.0229476757344197e-05
0.0676775952     2.0229485057963734e-05
0.067845114     2.0229493379161252e-05
0.0680126328     2.0229501720936815e-05
0.0681801516     2.0229510083290468e-05
0.06834767039999999     2.022951846622226e-05
0.06851518919999999     2.0229526869732242e-05
0.068682708     2.022953529382045e-05
0.0688502268     2.022954373848695e-05
0.0690177456     2.022955220373178e-05
0.0691852644     2.0229560689554978e-05
0.0693527832     2.0229569195956616e-05
0.06952030199999999     2.0229577722936726e-05
0.0696878208     2.022958627049536e-05
0.0698553396     2.0229594838632576e-05
0.0700228584     2.022960342734842e-05
0.0701903772     2.022961203664293e-05
0.070357896     2.0229620666516174e-05
0.07052541479999999     2.0229629316968182e-05
0.0706929336     2.0229637987999014e-05
0.0708604524     2.0229646679608723e-05
0.0710279712     2.0229655391797357e-05
0.07119549     2.022966412456496e-05
0.0713630088     2.0229672877911588e-05
0.07153052759999999     2.022968165183729e-05
0.07169804639999999     2.0229690446342124e-05
0.0718655652     2.0229699261426122e-05
0.072033084     2.0229708097089355e-05
0.0722006028     2.022971695333186e-05
0.0723681216     2.022972583015369e-05
0.07253564039999999     2.02297347275549e-05
0.07270315919999999     2.0229743645535544e-05
0.072870678     2.0229752584095668e-05
0.0730381968     2.022976154323533e-05
0.0732057156     2.0229770522954566e-05
0.0733732344     2.022977952325344e-05
0.0735407532     2.022978854413201e-05
0.07370827199999999     2.0229797585590322e-05
0.0738757908     2.0229806647628415e-05
0.0740433096     2.0229815730246357e-05
0.0742108284     2.022982483344419e-05
0.0743783472     2.0229833957221977e-05
0.074545866     2.022984310157976e-05
0.07471338479999999     2.02298522665176e-05
0.07488090359999999     2.0229861452035552e-05
0.0750484224     2.0229870658133655e-05
0.0752159412     2.0229879884811975e-05
0.07538346     2.0229889132070554e-05
0.0755509788     2.022989839990946e-05
0.07571849759999999     2.0229907688328738e-05
0.07588601639999999     2.0229916997328435e-05
0.0760535352     2.0229926326908617e-05
0.076221054     2.022993567706933e-05
0.0763885728     2.022994504781062e-05
0.0765560916     2.0229954439132565e-05
0.0767236104     2.0229963851035195e-05
0.07689112919999999     2.022997328351857e-05
0.077058648     2.0229982736582767e-05
0.0772261668     2.0229992210227803e-05
0.0773936856     2.0230001704453755e-05
0.0775612044     2.0230011219260673e-05
0.0777287232     2.0230020754648618e-05
0.07789624199999999     2.0230030310617634e-05
0.07806376079999999     2.0230039887167782e-05
0.0782312796     2.0230049484299123e-05
0.0783987984     2.023005910201169e-05
0.0785663172     2.023006874030556e-05
0.078733836     2.023007839918079e-05
0.07890135479999999     2.0230088078637426e-05
0.07906887359999999     2.0230097778675518e-05
0.0792363924     2.0230107499295135e-05
0.0794039112     2.023011724049632e-05
0.07957143     2.0230127002279154e-05
0.0797389488     2.0230136784643665e-05
0.0799064676     2.0230146587589914e-05
0.08007398639999999     2.0230156411117966e-05
0.0802415052     2.0230166255227878e-05
0.080409024     2.0230176119919695e-05
