Energy[eV]     Absorp.[arb.units]
0.0     2.0022936903612793e-05
0.0001030879     2.0022936914814346e-05
0.0002061758     2.0022936948419013e-05
0.0003092637     2.0022937004426796e-05
0.0004123516     2.0022937082837697e-05
0.0005154395000000001     2.0022937183651704e-05
0.0006185274     2.0022937306868828e-05
0.0007216153     2.002293745248907e-05
0.0008247032     2.0022937620512416e-05
0.0009277911000000001     2.002293781093889e-05
0.0010308790000000002     2.002293802376848e-05
0.0011339669     2.0022938259001186e-05
0.0012370548     2.0022938516637014e-05
0.0013401427000000001     2.002293879667596e-05
0.0014432306     2.0022939099118028e-05
0.0015463185     2.0022939423963224e-05
0.0016494064     2.002293977121155e-05
0.0017524943000000002     2.0022940140862992e-05
0.0018555822000000002     2.0022940532917566e-05
0.0019586701     2.0022940947375283e-05
0.0020617580000000003     2.0022941384236124e-05
0.0021648459     2.0022941843500108e-05
0.0022679338     2.002294232516722e-05
0.0023710217000000003     2.0022942829237482e-05
0.0024741096     2.0022943355710885e-05
0.0025771975     2.0022943904587435e-05
0.0026802854000000003     2.002294447586713e-05
0.0027833733     2.002294506954998e-05
0.0028864612     2.002294568563599e-05
0.0029895491000000002     2.0022946324125153e-05
0.003092637     2.002294698501748e-05
0.0031957249000000004     2.0022947668312973e-05
0.0032988128     2.0022948374011642e-05
0.0034019007     2.0022949102113476e-05
0.0035049886000000003     2.0022949852618484e-05
0.0036080765     2.0022950625526674e-05
0.0037111644000000004     2.0022951420838054e-05
0.0038142523000000003     2.002295223855262e-05
0.0039173402     2.002295307867038e-05
0.0040204281     2.002295394119133e-05
0.004123516000000001     2.0022954826115488e-05
0.0042266039000000005     2.0022955733442852e-05
0.0043296918     2.0022956663173422e-05
0.0044327797     2.0022957615307217e-05
0.0045358676     2.0022958589844223e-05
0.0046389555     2.0022959586784462e-05
0.004742043400000001     2.0022960606127932e-05
0.0048451313000000005     2.0022961647874635e-05
0.0049482192     2.002296271202459e-05
0.0050513071     2.0022963798577774e-05
0.005154395     2.0022964907534226e-05
0.005257482900000001     2.0022966038893932e-05
0.0053605708000000005     2.0022967192656906e-05
0.0054636587     2.0022968368823147e-05
0.0055667466     2.0022969567392666e-05
0.0056698345     2.0022970788365473e-05
0.0057729224     2.0022972031741565e-05
0.005876010300000001     2.0022973297520957e-05
0.0059790982000000005     2.002297458570365e-05
0.0060821861     2.0022975896289647e-05
0.006185274     2.0022977229278973e-05
0.0062883619     2.002297858467161e-05
0.006391449800000001     2.0022979962467587e-05
0.0064945377000000006     2.0022981362666896e-05
0.0065976256     2.0022982785269556e-05
0.0067007135     2.002298423027556e-05
0.0068038014     2.002298569768493e-05
0.006906889300000001     2.0022987187497667e-05
0.007009977200000001     2.0022988699713777e-05
0.0071130651000000005     2.0022990234333268e-05
0.007216153     2.0022991791356154e-05
0.0073192409     2.002299337078244e-05
0.007422328800000001     2.0022994972612132e-05
0.007525416700000001     2.0022996596845246e-05
0.0076285046000000006     2.0022998243481778e-05
0.0077315925     2.0022999912521745e-05
0.0078346804     2.0023001603965155e-05
0.0079377683     2.0023003317812016e-05
0.0080408562     2.0023005054062333e-05
0.0081439441     2.0023006812716127e-05
0.008247032000000001     2.0023008593773392e-05
0.008350119900000001     2.0023010397234144e-05
0.008453207800000001     2.0023012223098396e-05
0.008556295700000001     2.002301407136615e-05
0.0086593836     2.0023015942037422e-05
0.0087624715     2.002301783511222e-05
0.0088655594     2.002301975059056e-05
0.0089686473     2.002302168847244e-05
0.0090717352     2.0023023648757873e-05
0.0091748231     2.0023025631446873e-05
0.009277911     2.0023027636539448e-05
0.009380998900000001     2.0023029664035616e-05
0.009484086800000001     2.002303171393538e-05
0.009587174700000001     2.002303378623875e-05
0.009690262600000001     2.002303588094574e-05
0.0097933505     2.0023037998056353e-05
0.0098964384     2.0023040137570616e-05
0.0099995263     2.002304229948853e-05
0.0101026142     2.0023044483810103e-05
0.0102057021     2.0023046690535354e-05
0.01030879     2.002304891966429e-05
0.0104118779     2.0023051171196923e-05
0.010514965800000001     2.0023053445133262e-05
0.010618053700000001     2.0023055741473335e-05
0.010721141600000001     2.002305806021713e-05
0.010824229500000001     2.0023060401364677e-05
0.0109273174     2.0023062764915984e-05
0.0110304053     2.002306515087105e-05
0.0111334932     2.002306755922991e-05
0.0112365811     2.0023069989992566e-05
0.011339669     2.0023072443159024e-05
0.0114427569     2.0023074918729303e-05
0.0115458448     2.0023077416703417e-05
0.011648932700000001     2.002307993708138e-05
0.011752020600000001     2.00230824798632e-05
0.011855108500000001     2.0023085045048895e-05
0.011958196400000001     2.0023087632638475e-05
0.0120612843     2.002309024263195e-05
0.0121643722     2.0023092875029358e-05
0.0122674601     2.0023095529830677e-05
0.012370548     2.0023098207035936e-05
0.0124736359     2.0023100906645156e-05
0.0125767238     2.002310362865835e-05
0.012679811700000002     2.002310637307552e-05
0.012782899600000001     2.002310913989669e-05
0.012885987500000001     2.0023111929121873e-05
0.012989075400000001     2.0023114740751088e-05
0.013092163300000001     2.0023117574784342e-05
0.0131952512     2.002312043122165e-05
0.0132983391     2.0023123310063035e-05
0.013401427     2.0023126211308502e-05
0.0135045149     2.0023129134958072e-05
0.0136076028     2.0023132081011758e-05
0.0137106907     2.002313504946958e-05
0.013813778600000002     2.0023138040331544e-05
0.013916866500000001     2.002314105359768e-05
0.014019954400000001     2.0023144089267988e-05
0.014123042300000001     2.002314714734249e-05
0.014226130200000001     2.0023150227821205e-05
0.0143292181     2.002315333070415e-05
0.014432306     2.0023156455991335e-05
0.0145353939     2.002315960368279e-05
0.0146384818     2.002316277377851e-05
0.0147415697     2.0023165966278526e-05
0.014844657600000002     2.002316918118285e-05
0.014947745500000002     2.0023172418491503e-05
0.015050833400000001     2.00231756782045e-05
0.015153921300000001     2.002317896032185e-05
0.015257009200000001     2.0023182264843586e-05
0.015360097100000001     2.002318559176972e-05
0.015463185     2.002318894110025e-05
0.0155662729     2.0023192312835224e-05
0.0156693608     2.0023195706974635e-05
0.0157724487     2.0023199123518517e-05
0.0158755366     2.0023202562466883e-05
0.0159786245     2.0023206023819747e-05
0.0160817124     2.0023209507577127e-05
0.0161848003     2.0023213013739048e-05
0.0162878882     2.0023216542305525e-05
0.0163909761     2.0023220093276576e-05
0.016494064000000003     2.0023223666652217e-05
0.016597151900000003     2.0023227262432463e-05
0.016700239800000002     2.002323088061735e-05
0.016803327700000002     2.0023234521206882e-05
0.016906415600000002     2.0023238184201076e-05
0.017009503500000002     2.0023241869599962e-05
0.017112591400000002     2.002324557740355e-05
0.0172156793     2.0023249307611865e-05
0.0173187672     2.002325306022493e-05
0.0174218551     2.0023256835242755e-05
0.017524943     2.002326063266537e-05
0.0176280309     2.0023264452492776e-05
0.0177311188     2.0023268294725017e-05
0.0178342067     2.0023272159362102e-05
0.0179372946     2.0023276046404046e-05
0.0180403825     2.0023279955850878e-05
0.0181434704     2.002328388770261e-05
0.0182465583     2.0023287841959277e-05
0.0183496462     2.002329181862088e-05
0.0184527341     2.002329581768746e-05
0.018555822     2.0023299839159023e-05
0.0186589099     2.0023303883035588e-05
0.018761997800000003     2.0023307949317194e-05
0.018865085700000003     2.0023312038003846e-05
0.018968173600000002     2.002331614909557e-05
0.019071261500000002     2.0023320282592397e-05
0.019174349400000002     2.002332443849433e-05
0.019277437300000002     2.0023328616801395e-05
0.019380525200000002     2.002333281751363e-05
0.0194836131     2.0023337040631045e-05
0.019586701     2.002334128615366e-05
0.0196897889     2.002334555408151e-05
0.0197928768     2.002334984441459e-05
0.0198959647     2.002335415715295e-05
0.0199990526     2.0023358492296603e-05
0.0201021405     2.002336284984557e-05
0.0202052284     2.0023367229799878e-05
0.0203083163     2.0023371632159546e-05
0.0204114042     2.002337605692459e-05
0.0205144921     2.0023380504095054e-05
0.02061758     2.0023384973670937e-05
0.0207206679     2.002338946565228e-05
0.0208237558     2.0023393980039102e-05
0.020926843700000003     2.0023398516831417e-05
0.021029931600000003     2.002340307602927e-05
0.021133019500000003     2.002340765763266e-05
0.021236107400000002     2.0023412261641618e-05
0.021339195300000002     2.0023416888056185e-05
0.021442283200000002     2.0023421536876366e-05
0.021545371100000002     2.00234262081022e-05
0.021648459000000002     2.0023430901733685e-05
0.0217515469     2.0023435617770877e-05
0.0218546348     2.002344035621378e-05
0.0219577227     2.0023445117062432e-05
0.0220608106     2.0023449900316852e-05
0.0221638985     2.0023454705977062e-05
0.0222669864     2.0023459534043093e-05
0.0223700743     2.002346438451496e-05
0.0224731622     2.00234692573927e-05
0.0225762501     2.0023474152676338e-05
0.022679338     2.0023479070365895e-05
0.0227824259     2.0023484010461394e-05
0.0228855138     2.002348897296286e-05
0.0229886017     2.002349395787033e-05
0.0230916896     2.002349896518382e-05
0.023194777500000003     2.0023503994903362e-05
0.023297865400000003     2.002350904702898e-05
0.023400953300000003     2.0023514121560697e-05
0.023504041200000002     2.0023519218498543e-05
0.023607129100000002     2.002352433784254e-05
0.023710217000000002     2.0023529479592726e-05
0.023813304900000002     2.0023534643749114e-05
0.023916392800000002     2.0023539830311743e-05
0.0240194807     2.002354503928064e-05
0.0241225686     2.0023550270655815e-05
0.0242256565     2.0023555524437305e-05
0.0243287444     2.002356080062515e-05
0.0244318323     2.0023566099219365e-05
0.0245349202     2.0023571420219977e-05
0.0246380081     2.0023576763627026e-05
0.024741096     2.0023582129440522e-05
0.0248441839     2.00235875176605e-05
0.0249472718     2.0023592928286996e-05
0.0250503597     2.002359836132003e-05
0.0251534476     2.0023603816759625e-05
0.0252565355     2.0023609294605832e-05
0.025359623400000003     2.0023614794858656e-05
0.025462711300000003     2.0023620317518134e-05
0.025565799200000003     2.0023625862584294e-05
0.025668887100000003     2.0023631430057168e-05
0.025771975000000003     2.002363701993679e-05
0.025875062900000002     2.0023642632223177e-05
0.025978150800000002     2.002364826691636e-05
0.026081238700000002     2.0023653924016374e-05
0.026184326600000002     2.002365960352325e-05
0.026287414500000002     2.002366530543701e-05
0.0263905024     2.002367102975769e-05
0.0264935903     2.0023676776485325e-05
0.0265966782     2.002368254561993e-05
0.0266997661     2.002368833716155e-05
0.026802854     2.0023694151110203e-05
0.0269059419     2.0023699987465928e-05
0.0270090298     2.002370584622875e-05
0.0271121177     2.0023711727398698e-05
0.0272152056     2.0023717630975814e-05
0.0273182935     2.002372355696012e-05
0.0274213814     2.0023729505351653e-05
0.027524469300000003     2.002373547615043e-05
0.027627557200000003     2.00237414693565e-05
0.027730645100000003     2.002374748496988e-05
0.027833733000000003     2.0023753522990615e-05
0.027936820900000003     2.0023759583418727e-05
0.028039908800000003     2.0023765666254243e-05
0.028142996700000002     2.0023771771497212e-05
0.028246084600000002     2.0023777899147652e-05
0.028349172500000002     2.0023784049205597e-05
0.028452260400000002     2.0023790221671076e-05
0.028555348300000002     2.0023796416544134e-05
0.0286584362     2.002380263382479e-05
0.0287615241     2.0023808873513083e-05
0.028864612     2.0023815135609044e-05
0.0289676999     2.0023821420112713e-05
0.0290707878     2.0023827727024106e-05
0.0291738757     2.002383405634327e-05
0.0292769636     2.002384040807024e-05
0.0293800515     2.0023846782205032e-05
0.0294831394     2.0023853178747694e-05
0.0295862273     2.0023859597698256e-05
0.029689315200000004     2.002386603905676e-05
0.029792403100000003     2.0023872502823223e-05
0.029895491000000003     2.0023878988997685e-05
0.029998578900000003     2.0023885497580186e-05
0.030101666800000003     2.002389202857076e-05
0.030204754700000003     2.0023898581969424e-05
0.030307842600000003     2.002390515777624e-05
0.030410930500000002     2.0023911755991213e-05
0.030514018400000002     2.0023918376614405e-05
0.030617106300000002     2.0023925019645833e-05
0.030720194200000002     2.002393168508553e-05
0.030823282100000002     2.0023938372933547e-05
0.03092637     2.00239450831899e-05
0.0310294579     2.002395181585464e-05
0.0311325458     2.002395857092779e-05
0.0312356337     2.00239653484094e-05
0.0313387216     2.002397214829948e-05
0.0314418095     2.002397897059809e-05
0.0315448974     2.0023985815305257e-05
0.0316479853     2.002399268242102e-05
0.0317510732     2.0023999571945412e-05
0.0318541611     2.0024006483878467e-05
0.031957249     2.0024013418220216e-05
0.0320603369     2.0024020374970706e-05
0.0321634248     2.0024027354129975e-05
0.0322665127     2.0024034355698052e-05
0.0323696006     2.0024041379674975e-05
0.0324726885     2.0024048426060786e-05
0.0325757764     2.002405549485551e-05
0.0326788643     2.0024062586059192e-05
0.0327819522     2.0024069699671863e-05
0.0328850401     2.0024076835693573e-05
0.032988128000000005     2.002408399412435e-05
0.033091215900000005     2.002409117496423e-05
0.033194303800000005     2.0024098378213253e-05
0.033297391700000005     2.0024105603871456e-05
0.033400479600000005     2.002411285193888e-05
0.033503567500000005     2.0024120122415565e-05
0.033606655400000005     2.0024127415301542e-05
0.033709743300000004     2.002413473059685e-05
0.033812831200000004     2.0024142068301537e-05
0.033915919100000004     2.0024149428415622e-05
0.034019007000000004     2.002415681093916e-05
0.034122094900000004     2.002416421587218e-05
0.034225182800000004     2.0024171643214727e-05
0.0343282707     2.002417909296684e-05
0.0344313586     2.0024186565128553e-05
0.0345344465     2.002419405969991e-05
0.0346375344     2.002420157668096e-05
0.0347406223     2.002420911607171e-05
0.0348437102     2.0024216677872225e-05
0.0349467981     2.0024224262082544e-05
0.035049886     2.0024231868702698e-05
0.0351529739     2.002423949773273e-05
0.0352560618     2.0024247149172682e-05
0.0353591497     2.002425482302259e-05
0.0354622376     2.0024262519282507e-05
0.0355653255     2.002427023795245e-05
0.0356684134     2.002427797903248e-05
0.0357715013     2.0024285742522624e-05
0.0358745892     2.0024293528422932e-05
0.0359776771     2.0024301336733435e-05
0.036080765     2.002430916745419e-05
0.0361838529     2.0024317020585212e-05
0.0362869408     2.0024324896126573e-05
0.0363900287     2.0024332794078292e-05
0.0364931166     2.0024340714440416e-05
0.0365962045     2.002434865721299e-05
0.0366992924     2.0024356622396046e-05
0.0368023803     2.0024364609989634e-05
0.0369054682     2.00243726199938e-05
0.0370085561     2.0024380652408574e-05
0.037111644     2.002438870723401e-05
0.0372147319     2.002439678447014e-05
0.0373178198     2.0024404884117017e-05
0.037420907700000006     2.0024413006174663e-05
0.037523995600000006     2.0024421150643144e-05
0.037627083500000005     2.002442931752249e-05
0.037730171400000005     2.002443750681275e-05
0.037833259300000005     2.0024445718513957e-05
0.037936347200000005     2.002445395262616e-05
0.038039435100000005     2.0024462209149403e-05
0.038142523000000005     2.0024470488083727e-05
0.038245610900000004     2.0024478789429182e-05
0.038348698800000004     2.0024487113185803e-05
0.038451786700000004     2.0024495459353635e-05
0.038554874600000004     2.0024503827932723e-05
0.038657962500000004     2.0024512218923113e-05
0.038761050400000004     2.002452063232484e-05
0.0388641383     2.002452906813796e-05
0.0389672262     2.0024537526362515e-05
0.0390703141     2.0024546006998535e-05
0.039173402     2.0024554510046075e-05
0.0392764899     2.0024563035505185e-05
0.0393795778     2.002457158337591e-05
0.0394826657     2.0024580153658275e-05
0.0395857536     2.002458874635235e-05
0.0396888415     2.0024597361458164e-05
0.0397919294     2.0024605998975765e-05
0.0398950173     2.00246146589052e-05
0.0399981052     2.0024623341246516e-05
0.0401011931     2.002463204599975e-05
0.040204281     2.0024640773164956e-05
0.0403073689     2.002464952274218e-05
0.0404104568     2.0024658294731463e-05
0.0405135447     2.002466708913285e-05
0.0406166326     2.0024675905946396e-05
0.0407197205     2.0024684745172134e-05
0.0408228084     2.0024693606810116e-05
0.0409258963     2.0024702490860398e-05
0.0410289842     2.0024711397323008e-05
0.0411320721     2.0024720326198015e-05
0.04123516     2.0024729277485443e-05
0.0413382479     2.002473825118535e-05
0.0414413358     2.0024747247297778e-05
0.0415444237     2.002475626582278e-05
0.0416475116     2.0024765306760405e-05
0.0417505995     2.002477437011068e-05
0.041853687400000006     2.0024783455873686e-05
0.041956775300000006     2.0024792564049448e-05
0.042059863200000006     2.0024801694638016e-05
0.042162951100000005     2.002481084763944e-05
0.042266039000000005     2.0024820023053773e-05
0.042369126900000005     2.0024829220881047e-05
0.042472214800000005     2.0024838441121334e-05
0.042575302700000005     2.0024847683774665e-05
0.042678390600000005     2.0024856948841088e-05
0.042781478500000004     2.0024866236320653e-05
0.042884566400000004     2.0024875546213418e-05
0.042987654300000004     2.0024884878519417e-05
0.043090742200000004     2.0024894233238713e-05
0.043193830100000004     2.0024903610371346e-05
0.043296918000000004     2.002491300991737e-05
0.043400005900000004     2.0024922431876833e-05
0.0435030938     2.0024931876249777e-05
0.0436061817     2.002494134303626e-05
0.0437092696     2.0024950832236327e-05
0.0438123575     2.002496034385003e-05
0.0439154454     2.0024969877877422e-05
0.0440185333     2.0024979434318544e-05
0.0441216212     2.0024989013173455e-05
0.0442247091     2.0024998614442193e-05
0.044327797     2.002500823812482e-05
0.0444308849     2.0025017884221385e-05
0.0445339728     2.0025027552731932e-05
0.0446370607     2.002503724365652e-05
0.0447401486     2.0025046956995186e-05
0.0448432365     2.0025056692747992e-05
0.0449463244     2.0025066450914997e-05
0.0450494123     2.002507623149624e-05
0.0451525002     2.0025086034491762e-05
0.0452555881     2.0025095859901626e-05
0.045358676     2.002510570772589e-05
0.0454617639     2.00251155779646e-05
0.0455648518     2.0025125470617805e-05
0.0456679397     2.002513538568555e-05
0.0457710276     2.00251453231679e-05
0.0458741155     2.0025155283064902e-05
0.0459772034     2.002516526537661e-05
0.0460802913     2.0025175270103067e-05
0.0461833792     2.0025185297244337e-05
0.046286467100000006     2.0025195346800465e-05
0.046389555000000006     2.0025205418771507e-05
0.046492642900000006     2.0025215513157513e-05
0.046595730800000006     2.0025225629958543e-05
0.046698818700000005     2.0025235769174636e-05
0.046801906600000005     2.002524593080586e-05
0.046904994500000005     2.002525611485226e-05
0.047008082400000005     2.002526632131388e-05
0.047111170300000005     2.00252765501908e-05
0.047214258200000005     2.0025286801483044e-05
0.047317346100000005     2.0025297075190693e-05
0.047420434000000004     2.002530737131377e-05
0.047523521900000004     2.0025317689852356e-05
0.047626609800000004     2.00253280308065e-05
0.047729697700000004     2.0025338394176235e-05
0.047832785600000004     2.0025348779961637e-05
0.047935873500000004     2.0025359188162756e-05
0.0480389614     2.0025369618779637e-05
