Energy[eV]     Absorp.[arb.units]
0.0     4.749956598119582e-06
0.0001550554     4.749956599541002e-06
0.0003101108     4.74995660380526e-06
0.0004651662     4.7499566109123555e-06
0.0006202216     4.74995662086229e-06
0.000775277     4.749956633655065e-06
0.0009303324     4.749956649290676e-06
0.0010853878     4.749956667769125e-06
0.0012404432     4.749956689090416e-06
0.0013954986     4.749956713254543e-06
0.001550554     4.749956740261508e-06
0.0017056094     4.7499567701113145e-06
0.0018606648     4.74995680280396e-06
0.0020157202     4.749956838339444e-06
0.0021707756     4.749956876717766e-06
0.002325831     4.749956917938927e-06
0.0024808864     4.749956962002928e-06
0.0026359418     4.74995700890977e-06
0.0027909972     4.749957058659451e-06
0.0029460526     4.74995711125197e-06
0.003101108     4.749957166687332e-06
0.0032561634     4.74995722496553e-06
0.0034112188     4.74995728608657e-06
0.0035662742     4.74995735005045e-06
0.0037213296     4.749957416857173e-06
0.003876385     4.749957486506734e-06
0.0040314404     4.749957558999136e-06
0.0041864958     4.74995763433438e-06
0.0043415512     4.749957712512466e-06
0.0044966065999999996     4.749957793533392e-06
0.004651662     4.74995787739716e-06
0.0048067174     4.749957964103771e-06
0.0049617728     4.749958053653224e-06
0.0051168281999999995     4.749958146045517e-06
0.0052718836     4.749958241280656e-06
0.005426939     4.749958339358636e-06
0.0055819944     4.749958440279458e-06
0.0057370497999999995     4.749958544043126e-06
0.0058921052     4.749958650649638e-06
0.0060471606     4.7499587600989925e-06
0.006202216     4.749958872391192e-06
0.0063572713999999995     4.749958987526236e-06
0.0065123268     4.749959105504125e-06
0.0066673822     4.749959226324859e-06
0.0068224376     4.749959349988439e-06
0.0069774929999999995     4.749959476494864e-06
0.0071325484     4.749959605844137e-06
0.0072876038     4.749959738036257e-06
0.0074426592     4.749959873071222e-06
0.0075977145999999995     4.749960010949036e-06
0.00775277     4.749960151669697e-06
0.0079078254     4.749960295233207e-06
0.0080628808     4.749960441639562e-06
0.0082179362     4.74996059088877e-06
0.0083729916     4.749960742980826e-06
0.008528047     4.749960897915731e-06
0.0086831024     4.749961055693486e-06
0.0088381578     4.749961216314094e-06
0.008993213199999999     4.74996137977755e-06
0.0091482686     4.749961546083859e-06
0.009303324     4.749961715233021e-06
0.0094583794     4.7499618872250335e-06
0.0096134348     4.749962062059899e-06
0.0097684902     4.7499622397376185e-06
0.0099235456     4.7499624202581925e-06
0.010078601     4.74996260362162e-06
0.010233656399999999     4.7499627898279026e-06
0.0103887118     4.7499629788770395e-06
0.0105437672     4.7499631707690325e-06
0.0106988226     4.749963365503882e-06
0.010853878     4.74996356308159e-06
0.0110089334     4.749963763502153e-06
0.0111639888     4.749963966765575e-06
0.0113190442     4.749964172871855e-06
0.011474099599999999     4.749964381820994e-06
0.011629155     4.749964593612994e-06
0.0117842104     4.749964808247855e-06
0.0119392658     4.749965025725574e-06
0.0120943212     4.749965246046156e-06
0.0122493766     4.7499654692096e-06
0.012404432     4.7499656952159045e-06
0.0125594874     4.749965924065075e-06
0.012714542799999999     4.749966155757106e-06
0.0128695982     4.749966390292004e-06
0.0130246536     4.749966627669767e-06
0.013179709     4.7499668678903956e-06
0.0133347644     4.749967110953892e-06
0.0134898198     4.749967356860253e-06
0.0136448752     4.749967605609481e-06
0.0137999306     4.74996785720158e-06
0.013954985999999999     4.749968111636546e-06
0.0141100414     4.749968368914384e-06
0.0142650968     4.749968629035091e-06
0.0144201522     4.749968891998668e-06
0.0145752076     4.7499691578051185e-06
0.014730263     4.749969426454442e-06
0.0148853184     4.749969697946639e-06
0.0150403738     4.749969972281708e-06
0.015195429199999999     4.749970249459653e-06
0.0153504846     4.749970529480473e-06
0.01550554     4.74997081234417e-06
0.0156605954     4.749971098050745e-06
0.0158156508     4.749971386600196e-06
0.0159707062     4.749971677992528e-06
0.0161257616     4.749971972227737e-06
0.016280817     4.749972269305828e-06
0.0164358724     4.749972569226798e-06
0.0165909278     4.749972871990652e-06
0.0167459832     4.749973177597387e-06
0.0169010386     4.749973486047007e-06
0.017056094     4.74997379733951e-06
0.0172111494     4.7499741114749e-06
0.0173662048     4.749974428453176e-06
0.0175212602     4.749974748274337e-06
0.0176763156     4.749975070938386e-06
0.017831371     4.749975396445324e-06
0.017986426399999998     4.749975724795152e-06
0.0181414818     4.74997605598787e-06
0.0182965372     4.74997639002348e-06
0.0184515926     4.749976726901982e-06
0.018606648     4.749977066623378e-06
0.0187617034     4.749977409187667e-06
0.0189167588     4.749977754594852e-06
0.0190718142     4.749978102844931e-06
0.0192268696     4.749978453937908e-06
0.019381925     4.749978807873783e-06
0.0195369804     4.749979164652556e-06
0.0196920358     4.74997952427423e-06
0.0198470912     4.749979886738804e-06
0.0200021466     4.749980252046282e-06
0.020157202     4.74998062019666e-06
0.0203122574     4.7499809911899425e-06
0.020467312799999998     4.749981365026129e-06
0.0206223682     4.749981741705223e-06
0.0207774236     4.749982121227222e-06
0.020932479     4.7499825035921285e-06
0.0210875344     4.7499828887999456e-06
0.0212425898     4.749983276850673e-06
0.0213976452     4.7499836677443094e-06
0.0215527006     4.74998406148086e-06
0.021707756     4.749984458060322e-06
0.0218628114     4.749984857482698e-06
0.0220178668     4.74998525974799e-06
0.0221729222     4.749985664856198e-06
0.0223279776     4.749986072807325e-06
0.022483033     4.7499864836013684e-06
0.0226380884     4.749986897238332e-06
0.0227931438     4.749987313718217e-06
0.022948199199999998     4.749987733041022e-06
0.0231032546     4.749988155206753e-06
0.02325831     4.749988580215406e-06
0.0234133654     4.749989008066986e-06
0.0235684208     4.749989438761492e-06
0.0237234762     4.749989872298926e-06
0.0238785316     4.749990308679288e-06
0.024033587     4.7499907479025795e-06
0.0241886424     4.749991189968804e-06
0.0243436978     4.749991634877959e-06
0.0244987532     4.749992082630049e-06
0.0246538086     4.749992533225075e-06
0.024808864     4.749992986663035e-06
0.0249639194     4.749993442943933e-06
0.0251189748     4.74999390206777e-06
0.0252740302     4.749994364034547e-06
0.025429085599999998     4.749994828844263e-06
0.025584141     4.749995296496924e-06
0.0257391964     4.7499957669925265e-06
0.0258942518     4.749996240331076e-06
0.0260493072     4.749996716512571e-06
0.0262043626     4.7499971955370125e-06
0.026359418     4.749997677404403e-06
0.0265144734     4.749998162114744e-06
0.0266695288     4.749998649668036e-06
0.0268245842     4.749999140064281e-06
0.0269796396     4.749999633303479e-06
0.027134695     4.750000129385635e-06
0.0272897504     4.7500006283107455e-06
0.0274448058     4.750001130078815e-06
0.0275998612     4.750001634689844e-06
0.0277549166     4.750002142143833e-06
0.027909971999999998     4.750002652440784e-06
0.0280650274     4.7500031655807e-06
0.0282200828     4.75000368156358e-06
0.0283751382     4.750004200389426e-06
0.0285301936     4.750004722058241e-06
0.028685249     4.7500052465700235e-06
0.0288403044     4.75000577392478e-06
0.0289953598     4.750006304122506e-06
0.0291504152     4.750006837163207e-06
0.0293054706     4.7500073730468805e-06
0.029460526     4.750007911773532e-06
0.0296155814     4.750008453343162e-06
0.0297706368     4.750008997755771e-06
0.0299256922     4.750009545011359e-06
0.0300807476     4.75001009510993e-06
0.030235803     4.750010648051487e-06
0.030390858399999998     4.750011203836027e-06
0.0305459138     4.750011762463555e-06
0.0307009692     4.750012323934072e-06
0.0308560246     4.7500128882475755e-06
0.03101108     4.750013455404074e-06
0.0311661354     4.750014025403564e-06
0.0313211908     4.75001459824605e-06
0.0314762462     4.750015173931529e-06
0.0316313016     4.750015752460009e-06
0.031786357     4.750016333831485e-06
0.0319414124     4.750016918045963e-06
0.0320964678     4.7500175051034444e-06
0.0322515232     4.750018095003928e-06
0.0324065786     4.7500186877474185e-06
0.032561634     4.7500192833339165e-06
0.0327166894     4.750019881763422e-06
0.0328717448     4.75002048303594e-06
0.0330268002     4.750021087151467e-06
0.0331818556     4.75002169411001e-06
0.033336911     4.750022303911565e-06
0.0334919664     4.750022916556141e-06
0.0336470218     4.750023532043734e-06
0.0338020772     4.750024150374347e-06
0.0339571326     4.7500247715479825e-06
0.034112188     4.750025395564642e-06
0.0342672434     4.750026022424326e-06
0.0344222988     4.750026652127037e-06
0.0345773542     4.750027284672777e-06
0.0347324096     4.750027920061548e-06
0.034887465     4.750028558293352e-06
0.0350425204     4.750029199368189e-06
0.0351975758     4.75002984328606e-06
0.0353526312     4.750030490046972e-06
0.0355076866     4.750031139650922e-06
0.035662742     4.750031792097911e-06
0.0358177974     4.750032447387944e-06
0.035972852799999996     4.750033105521023e-06
0.0361279082     4.750033766497147e-06
0.0362829636     4.7500344303163185e-06
0.036438019     4.750035096978541e-06
0.0365930744     4.750035766483815e-06
0.0367481298     4.750036438832142e-06
0.0369031852     4.750037114023523e-06
0.0370582406     4.7500377920579634e-06
0.037213296     4.7500384729354616e-06
0.0373683514     4.750039156656023e-06
0.0375234068     4.750039843219646e-06
0.0376784622     4.750040532626333e-06
0.0378335176     4.750041224876087e-06
0.037988573     4.750041919968907e-06
0.0381436284     4.750042617904801e-06
0.0382986838     4.750043318683766e-06
0.0384537392     4.7500440223058035e-06
0.0386087946     4.750044728770918e-06
0.03876385     4.750045438079111e-06
0.0389189054     4.750046150230384e-06
0.0390739608     4.750046865224738e-06
0.0392290162     4.750047583062175e-06
0.0393840716     4.750048303742698e-06
0.039539127     4.750049027266309e-06
0.0396941824     4.7500497536330095e-06
0.0398492378     4.750050482842802e-06
0.0400042932     4.750051214895687e-06
0.0401593486     4.75005194979167e-06
0.040314404     4.750052687530749e-06
0.0404694594     4.750053428112927e-06
0.0406245148     4.750054171538205e-06
0.0407795702     4.750054917806589e-06
0.040934625599999996     4.750055666918078e-06
0.041089681     4.750056418872675e-06
0.0412447364     4.750057173670379e-06
0.0413997918     4.750057931311199e-06
0.0415548472     4.750058691795129e-06
0.0417099026     4.750059455122178e-06
0.041864958     4.750060221292343e-06
0.0420200134     4.750060990305629e-06
0.0421750688     4.750061762162037e-06
0.0423301242     4.750062536861567e-06
0.0424851796     4.750063314404226e-06
0.042640235     4.750064094790012e-06
0.0427952904     4.750064878018929e-06
0.0429503458     4.750065664090978e-06
0.0431054012     4.750066453006162e-06
0.0432604566     4.7500672447644835e-06
0.043415512     4.750068039365943e-06
0.0435705674     4.750068836810544e-06
0.0437256228     4.750069637098289e-06
0.0438806782     4.75007044022918e-06
0.0440357336     4.750071246203217e-06
0.044190789     4.750072055020405e-06
0.0443458444     4.750072866680744e-06
0.0445008998     4.75007368118424e-06
0.0446559552     4.7500744985308915e-06
0.0448110106     4.750075318720702e-06
0.044966066     4.750076141753672e-06
0.0451211214     4.750076967629806e-06
0.0452761768     4.7500777963491055e-06
0.0454312322     4.750078627911573e-06
0.0455862876     4.7500794623172095e-06
0.045741343     4.75008029956602e-06
0.045896398399999996     4.750081139658004e-06
0.0460514538     4.750081982593165e-06
0.0462065092     4.750082828371504e-06
0.0463615646     4.750083676993026e-06
0.04651662     4.75008452845773e-06
0.0466716754     4.750085382765622e-06
0.0468267308     4.750086239916702e-06
0.0469817862     4.750087099910972e-06
0.0471368416     4.750087962748435e-06
0.047291897     4.750088828429091e-06
0.0474469524     4.75008969695295e-06
0.0476020078     4.750090568320006e-06
0.0477570632     4.750091442530265e-06
0.0479121186     4.750092319583727e-06
0.048067174     4.750093199480399e-06
0.0482222294     4.7500940822202785e-06
0.0483772848     4.750094967803371e-06
0.0485323402     4.750095856229677e-06
0.0486873956     4.7500967474992e-06
0.048842451     4.750097641611943e-06
0.0489975064     4.750098538567908e-06
0.0491525618     4.750099438367097e-06
0.0493076172     4.750100341009511e-06
0.0494626726     4.7501012464951536e-06
0.049617728     4.75010215482403e-06
0.0497727834     4.750103065996138e-06
0.0499278388     4.750103980011483e-06
0.0500828942     4.750104896870067e-06
0.0502379496     4.750105816571893e-06
0.050393005     4.750106739116964e-06
0.0505480604     4.750107664505279e-06
0.0507031158     4.7501085927368444e-06
0.050858171199999996     4.750109523811661e-06
0.0510132266     4.7501104577297305e-06
0.051168282     4.750111394491058e-06
0.0513233374     4.750112334095642e-06
0.0514783928     4.75011327654349e-06
0.0516334482     4.750114221834601e-06
0.0517885036     4.7501151699689785e-06
0.051943559     4.750116120946627e-06
0.0520986144     4.750117074767545e-06
0.0522536698     4.750118031431741e-06
0.0524087252     4.750118990939211e-06
0.0525637806     4.750119953289961e-06
0.052718836     4.7501209184839924e-06
0.0528738914     4.75012188652131e-06
0.0530289468     4.750122857401915e-06
0.0531840022     4.750123831125809e-06
0.0533390576     4.750124807692997e-06
0.053494113     4.750125787103481e-06
0.0536491684     4.750126769357264e-06
0.0538042238     4.750127754454344e-06
0.0539592792     4.75012874239473e-06
0.0541143346     4.750129733178422e-06
0.05426939     4.750130726805424e-06
0.0544244454     4.750131723275734e-06
0.0545795008     4.750132722589362e-06
0.0547345562     4.750133724746305e-06
0.0548896116     4.750134729746568e-06
0.055044667     4.750135737590152e-06
0.0551997224     4.750136748277062e-06
0.0553547778     4.750137761807302e-06
0.0555098332     4.750138778180871e-06
0.0556648886     4.7501397973977725e-06
0.055819943999999996     4.750140819458012e-06
0.0559749994     4.75014184436159e-06
0.0561300548     4.7501428721085085e-06
0.0562851102     4.750143902698771e-06
0.0564401656     4.750144936132383e-06
0.056595221     4.750145972409344e-06
0.0567502764     4.750147011529659e-06
0.0569053318     4.750148053493329e-06
0.0570603872     4.750149098300358e-06
0.0572154426     4.750150145950747e-06
0.057370498     4.750151196444502e-06
0.0575255534     4.750152249781623e-06
0.0576806088     4.750153305962114e-06
0.0578356642     4.750154364985979e-06
0.0579907196     4.750155426853219e-06
0.058145775     4.750156491563838e-06
0.0583008304     4.750157559117836e-06
0.0584558858     4.750158629515223e-06
0.0586109412     4.750159702755993e-06
0.0587659966     4.750160778840156e-06
0.058921052     4.750161857767712e-06
0.0590761074     4.750162939538663e-06
0.0592311628     4.750164024153014e-06
0.0593862182     4.750165111610767e-06
0.0595412736     4.7501662019119245e-06
0.059696329     4.75016729505649e-06
0.0598513844     4.750168391044466e-06
0.0600064398     4.750169489875855e-06
0.0601614952     4.7501705915506625e-06
0.0603165506     4.75017169606889e-06
0.060471606     4.75017280343054e-06
0.0606266614     4.750173913635615e-06
0.060781716799999996     4.750175026684119e-06
0.0609367722     4.750176142576054e-06
0.0610918276     4.750177261311425e-06
0.061246883     4.750178382890236e-06
0.0614019384     4.750179507312486e-06
0.0615569938     4.750180634578179e-06
0.0617120492     4.750181764687321e-06
0.0618671046     4.750182897639911e-06
0.06202216     4.750184033435957e-06
0.0621772154     4.750185172075458e-06
0.0623322708     4.750186313558419e-06
0.0624873262     4.750187457884842e-06
0.0626423816     4.75018860505473e-06
0.062797437     4.750189755068087e-06
0.0629524924     4.750190907924917e-06
0.0631075478     4.75019206362522e-06
0.0632626032     4.750193222169004e-06
0.0634176586     4.750194383556267e-06
0.063572714     4.7501955477870155e-06
0.0637277694     4.750196714861251e-06
0.0638828248     4.750197884778978e-06
0.0640378802     4.7501990575402e-06
0.0641929356     4.750200233144916e-06
0.064347991     4.750201411593136e-06
0.0645030464     4.750202592884857e-06
0.0646581018     4.750203777020086e-06
0.0648131572     4.750204963998824e-06
0.0649682126     4.750206153821076e-06
0.065123268     4.750207346486844e-06
0.0652783234     4.7502085419961305e-06
0.0654333788     4.750209740348943e-06
0.0655884342     4.75021094154528e-06
0.0657434896     4.750212145585146e-06
0.065898545     4.750213352468547e-06
0.0660536004     4.75021456219548e-06
0.0662086558     4.750215774765955e-06
0.0663637112     4.750216990179973e-06
0.0665187666     4.750218208437535e-06
0.066673822     4.7502194295386485e-06
0.0668288774     4.750220653483313e-06
0.0669839328     4.750221880271533e-06
0.0671389882     4.750223109903314e-06
0.0672940436     4.750224342378654e-06
0.067449099     4.7502255776975644e-06
0.0676041544     4.750226815860041e-06
0.0677592098     4.750228056866091e-06
0.0679142652     4.7502293007157156e-06
0.0680693206     4.75023054740892e-06
0.068224376     4.75023179694571e-06
0.0683794314     4.750233049326083e-06
0.0685344868     4.750234304550047e-06
0.0686895422     4.750235562617603e-06
0.0688445976     4.750236823528756e-06
0.068999653     4.7502380872835075e-06
0.0691547084     4.750239353881866e-06
0.0693097638     4.750240623323827e-06
0.0694648192     4.7502418956094e-06
0.0696198746     4.750243170738585e-06
0.06977493     4.7502444487113875e-06
0.0699299854     4.750245729527812e-06
0.0700850408     4.750247013187859e-06
0.0702400962     4.750248299691534e-06
0.0703951516     4.750249589038841e-06
0.070550207     4.750250881229782e-06
0.0707052624     4.75025217626436e-06
0.0708603178     4.750253474142579e-06
0.0710153732     4.750254774864443e-06
0.0711704286     4.7502560784299575e-06
0.071325484     4.750257384839125e-06
0.0714805394     4.750258694091944e-06
0.0716355948     4.750260006188424e-06
0.0717906502     4.750261321128567e-06
0.07194570559999999     4.750262638912378e-06
0.072100761     4.750263959539858e-06
0.0722558164     4.750265283011009e-06
0.0724108718     4.7502666093258396e-06
0.0725659272     4.750267938484351e-06
0.0727209826     4.750269270486545e-06
0.072876038     4.750270605332428e-06
0.0730310934     4.750271943022003e-06
0.0731861488     4.750273283555272e-06
0.0733412042     4.7502746269322395e-06
0.0734962596     4.7502759731529115e-06
0.073651315     4.750277322217288e-06
0.0738063704     4.750278674125375e-06
0.0739614258     4.750280028877176e-06
0.0741164812     4.750281386472694e-06
0.0742715366     4.750282746911931e-06
0.074426592     4.750284110194895e-06
0.0745816474     4.750285476321585e-06
0.0747367028     4.750286845292008e-06
0.0748917582     4.750288217106168e-06
0.0750468136     4.750289591764066e-06
0.075201869     4.750290969265708e-06
0.0753569244     4.750292349611095e-06
0.0755119798     4.750293732800235e-06
0.0756670352     4.7502951188331276e-06
0.0758220906     4.750296507709779e-06
0.075977146     4.750297899430192e-06
0.0761322014     4.75029929399437e-06
0.0762872568     4.75030069140232e-06
0.0764423122     4.750302091654041e-06
0.0765973676     4.75030349474954e-06
0.076752423     4.7503049006888195e-06
0.0769074784     4.750306309471884e-06
0.0770625338     4.7503077210987365e-06
0.0772175892     4.750309135569384e-06
0.0773726446     4.750310552883825e-06
0.0775277     4.750311973042067e-06
0.0776827554     4.750313396044112e-06
0.0778378108     4.750314821889966e-06
0.0779928662     4.750316250579631e-06
0.0781479216     4.750317682113111e-06
0.078302977     4.750319116490411e-06
0.0784580324     4.750320553711535e-06
0.0786130878     4.7503219937764875e-06
0.0787681432     4.750323436685269e-06
