Energy[eV]     Absorp.[arb.units]
0.0     3.617338548771477e-05
0.0001686278     3.6173385516902365e-05
0.0003372556     3.617338560446514e-05
0.0005058834     3.6173385750403104e-05
0.0006745112     3.617338595471628e-05
0.000843139     3.617338621740466e-05
0.0010117668     3.617338653846823e-05
0.0011803946     3.617338691790705e-05
0.0013490224     3.617338735572108e-05
0.0015176502     3.617338785191035e-05
0.001686278     3.6173388406474884e-05
0.0018549058     3.6173389019414685e-05
0.0020235336     3.617338969072979e-05
0.0021921614     3.617339042042022e-05
0.0023607892     3.617339120848597e-05
0.002529417     3.617339205492708e-05
0.0026980448     3.617339295974358e-05
0.0028666726     3.6173393922935484e-05
0.0030353004     3.617339494450285e-05
0.0032039282     3.617339602444567e-05
0.003372556     3.617339716276401e-05
0.0035411838     3.6173398359457895e-05
0.0037098116     3.6173399614527335e-05
0.0038784394     3.6173400927972395e-05
0.0040470672     3.6173402299793116e-05
0.004215695     3.617340372998954e-05
0.0043843228     3.617340521856168e-05
0.0045529506     3.6173406765509616e-05
0.0047215784     3.617340837083338e-05
0.0048902062     3.617341003453302e-05
0.005058834     3.6173411756608594e-05
0.0052274618     3.617341353706013e-05
0.0053960896     3.617341537588771e-05
0.0055647173999999995     3.61734172730914e-05
0.0057333452     3.617341922867122e-05
0.005901973     3.617342124262725e-05
0.0060706008     3.617342331495953e-05
0.0062392286     3.6173425445668144e-05
0.0064078564     3.617342763475317e-05
0.0065764842     3.617342988221464e-05
0.006745112     3.6173432188052626e-05
0.0069137398     3.617343455226724e-05
0.0070823676     3.617343697485849e-05
0.0072509954     3.61734394558265e-05
0.0074196232     3.617344199517132e-05
0.007588251     3.617344459289303e-05
0.0077568788     3.6173447248991715e-05
0.0079255066     3.6173449963467454e-05
0.0080941344     3.6173452736320324e-05
0.008262762199999999     3.6173455567550413e-05
0.00843139     3.61734584571578e-05
0.0086000178     3.617346140514256e-05
0.0087686456     3.6173464411504825e-05
0.0089372734     3.6173467476244646e-05
0.0091059012     3.617347059936212e-05
0.009274529     3.6173473780857375e-05
0.0094431568     3.617347702073046e-05
0.0096117846     3.61734803189815e-05
0.0097804124     3.6173483675610584e-05
0.0099490402     3.6173487090617834e-05
0.010117668     3.617349056400332e-05
0.0102862958     3.617349409576717e-05
0.0104549236     3.617349768590949e-05
0.0106235514     3.617350133443038e-05
0.0107921792     3.6173505041329945e-05
0.010960807     3.6173508806608304e-05
0.011129434799999999     3.617351263026558e-05
0.0112980626     3.617351651230188e-05
0.0114666904     3.617352045271732e-05
0.0116353182     3.617352445151201e-05
0.011803946     3.6173528508686096e-05
0.0119725738     3.6173532624239676e-05
0.0121412016     3.6173536798172875e-05
0.0123098294     3.6173541030485855e-05
0.0124784572     3.617354532117868e-05
0.012647085     3.6173549670251536e-05
0.0128157128     3.617355407770452e-05
0.0129843406     3.617355854353779e-05
0.0131529684     3.617356306775146e-05
0.0133215962     3.617356765034569e-05
0.013490224     3.6173572291320596e-05
0.0136588518     3.6173576990676335e-05
0.0138274796     3.617358174841302e-05
0.013996107399999999     3.617358656453083e-05
0.0141647352     3.617359143902989e-05
0.014333363     3.6173596371910345e-05
0.0145019908     3.617360136317236e-05
0.0146706186     3.6173606412816074e-05
0.0148392464     3.6173611520841635e-05
0.0150078742     3.617361668724922e-05
0.015176502     3.617362191203895e-05
0.0153451298     3.6173627195211004e-05
0.0155137576     3.6173632536765554e-05
0.0156823854     3.6173637936702725e-05
0.0158510132     3.6173643395022725e-05
0.016019641     3.617364891172568e-05
0.0161882688     3.617365448681177e-05
0.0163568966     3.6173660120281165e-05
0.016525524399999998     3.6173665812134024e-05
0.0166941522     3.617367156237056e-05
0.01686278     3.617367737099089e-05
0.0170314078     3.617368323799522e-05
0.0172000356     3.6173689163383716e-05
0.0173686634     3.6173695147156574e-05
0.0175372912     3.617370118931397e-05
0.017705919     3.617370728985607e-05
0.0178745468     3.617371344878306e-05
0.0180431746     3.617371966609515e-05
0.0182118024     3.617372594179249e-05
0.0183804302     3.617373227587531e-05
0.018549058     3.6173738668343784e-05
0.0187176858     3.617374511919809e-05
0.0188863136     3.617375162843843e-05
0.0190549414     3.617375819606502e-05
0.0192235692     3.617376482207804e-05
0.019392197     3.61737715064777e-05
0.0195608248     3.6173778249264194e-05
0.0197294526     3.617378505043771e-05
0.0198980804     3.6173791909998494e-05
0.0200667082     3.617379882794671e-05
0.020235336     3.6173805804282615e-05
0.0204039638     3.6173812839006363e-05
0.0205725916     3.6173819932118214e-05
0.0207412194     3.617382708361835e-05
0.0209098472     3.617383429350701e-05
0.021078475     3.617384156178438e-05
0.0212471028     3.617384888845073e-05
0.0214157306     3.617385627350622e-05
0.0215843584     3.6173863716951124e-05
0.0217529862     3.6173871218785646e-05
0.021921614     3.6173878779010004e-05
0.0220902418     3.617388639762446e-05
0.022258869599999998     3.61738940746292e-05
0.0224274974     3.617390181002449e-05
0.0225961252     3.6173909603810534e-05
0.022764753     3.617391745598759e-05
0.0229333808     3.6173925366555884e-05
0.0231020086     3.6173933335515666e-05
0.0232706364     3.617394136286717e-05
0.0234392642     3.6173949448610614e-05
0.023607892     3.6173957592746276e-05
0.0237765198     3.61739657952744e-05
0.0239451476     3.617397405619523e-05
0.0241137754     3.6173982375508984e-05
0.0242824032     3.6173990753215967e-05
0.024451030999999998     3.6173999189316384e-05
0.0246196588     3.617400768381053e-05
0.0247882866     3.617401623669862e-05
0.0249569144     3.617402484798095e-05
0.0251255422     3.617403351765776e-05
0.02529417     3.617404224572932e-05
0.0254627978     3.617405103219586e-05
0.0256314256     3.6174059877057715e-05
0.0258000534     3.617406878031508e-05
0.0259686812     3.617407774196827e-05
0.026137309     3.6174086762017536e-05
0.0263059368     3.6174095840463166e-05
0.0264745646     3.617410497730541e-05
0.0266431924     3.617411417254455e-05
0.0268118202     3.617412342618088e-05
0.026980448     3.6174132738214676e-05
0.0271490758     3.6174142108646204e-05
0.0273177036     3.617415153747576e-05
0.0274863314     3.6174161024703624e-05
0.0276549592     3.6174170570330094e-05
0.027823587     3.617418017435543e-05
0.027992214799999998     3.6174189836779945e-05
0.0281608426     3.6174199557603924e-05
0.0283294704     3.6174209336827674e-05
0.0284980982     3.6174219174451466e-05
0.028666726     3.61742290704756e-05
0.0288353538     3.61742390249004e-05
0.0290039816     3.617424903772616e-05
0.0291726094     3.617425910895314e-05
0.0293412372     3.61742692385817e-05
0.029509865     3.617427942661213e-05
0.0296784928     3.61742896730447e-05
0.0298471206     3.617429997787979e-05
0.0300157484     3.617431034111764e-05
0.030184376199999998     3.617432076275861e-05
0.030353004     3.6174331242803e-05
0.0305216318     3.6174341781251124e-05
0.0306902596     3.6174352378103296e-05
0.0308588874     3.617436303335983e-05
0.0310275152     3.617437374702109e-05
0.031196143     3.617438451908735e-05
0.0313647708     3.617439534955895e-05
0.0315333986     3.617440623843622e-05
0.0317020264     3.617441718571951e-05
0.0318706542     3.617442819140912e-05
0.032039282     3.6174439255505385e-05
0.0322079098     3.617445037800867e-05
0.0323765376     3.617446155891927e-05
0.0325451654     3.617447279823755e-05
0.0327137932     3.617448409596383e-05
0.032882421     3.617449545209848e-05
0.033051048799999996     3.617450686664182e-05
0.0332196766     3.61745183395942e-05
0.0333883044     3.617452987095595e-05
0.0335569322     3.617454146072746e-05
0.03372556     3.6174553108909046e-05
0.0338941878     3.617456481550105e-05
0.0340628156     3.617457658050387e-05
0.0342314434     3.617458840391783e-05
0.0344000712     3.6174600285743296e-05
0.034568699     3.617461222598062e-05
0.0347373268     3.617462422463016e-05
0.0349059546     3.6174636281692295e-05
0.0350745824     3.617464839716738e-05
0.0352432102     3.6174660571055784e-05
0.035411838     3.617467280335786e-05
0.0355804658     3.6174685094074e-05
0.0357490936     3.617469744320455e-05
0.0359177214     3.617470985074991e-05
0.0360863492     3.617472231671045e-05
0.036254977     3.6174734841086516e-05
0.0364236048     3.617474742387853e-05
0.036592232599999996     3.617476006508684e-05
0.0367608604     3.617477276471184e-05
0.0369294882     3.617478552275392e-05
0.037098116     3.6174798339213466e-05
0.0372667438     3.617481121409085e-05
0.0374353716     3.617482414738646e-05
0.0376039994     3.6174837139100705e-05
0.0377726272     3.6174850189233965e-05
0.037941255     3.617486329778665e-05
0.0381098828     3.617487646475914e-05
0.0382785106     3.617488969015182e-05
0.0384471384     3.617490297396512e-05
0.0386157662     3.617491631619945e-05
0.038784394     3.617492971685516e-05
0.0389530218     3.6174943175932696e-05
0.0391216496     3.617495669343246e-05
0.0392902774     3.617497026935485e-05
0.0394589052     3.617498390370029e-05
0.039627533     3.617499759646917e-05
0.0397961608     3.617501134766193e-05
0.0399647886     3.617502515727898e-05
0.0401334164     3.617503902532072e-05
0.0403020442     3.617505295178757e-05
0.040470672     3.617506693667998e-05
0.0406392998     3.617508097999834e-05
0.0408079276     3.6175095081743096e-05
0.040976555399999996     3.617510924191467e-05
0.0411451832     3.6175123460513485e-05
0.041313811     3.617513773753997e-05
0.0414824388     3.617515207299455e-05
0.0416510666     3.617516646687768e-05
0.0418196944     3.6175180919189784e-05
0.0419883222     3.617519542993131e-05
0.04215695     3.617520999910266e-05
0.0423255778     3.6175224626704314e-05
0.0424942056     3.617523931273669e-05
0.0426628334     3.617525405720024e-05
0.0428314612     3.6175268860095406e-05
0.043000089     3.6175283721422656e-05
0.0431687168     3.617529864118241e-05
0.0433373446     3.6175313619375144e-05
0.0435059724     3.617532865600129e-05
0.0436746002     3.6175343751061326e-05
0.043843228     3.617535890455567e-05
0.0440118558     3.617537411648483e-05
0.0441804836     3.6175389386849226e-05
0.0443491114     3.617540471564934e-05
0.044517739199999996     3.617542010288564e-05
0.044686367     3.617543554855856e-05
0.0448549948     3.6175451052668596e-05
0.0450236226     3.617546661521621e-05
0.0451922504     3.617548223620187e-05
0.0453608782     3.617549791562607e-05
0.045529506     3.6175513653489234e-05
0.0456981338     3.617552944979189e-05
0.0458667616     3.617554530453449e-05
0.0460353894     3.617556121771751e-05
0.0462040172     3.617557718934145e-05
0.046372645     3.617559321940677e-05
0.0465412728     3.617560930791397e-05
0.0467099006     3.617562545486353e-05
0.0468785284     3.617564166025594e-05
0.0470471562     3.617565792409171e-05
0.047215784     3.61756742463713e-05
0.0473844118     3.6175690627095224e-05
0.0475530396     3.617570706626397e-05
0.0477216674     3.6175723563878035e-05
0.0478902952     3.6175740119937916e-05
0.048058922999999996     3.6175756734444115e-05
0.0482275508     3.617577340739713e-05
0.0483961786     3.617579013879749e-05
0.0485648064     3.617580692864567e-05
0.0487334342     3.61758237769422e-05
0.048902061999999996     3.617584068368759e-05
0.0490706898     3.617585764888232e-05
0.0492393176     3.6175874672526944e-05
0.0494079454     3.6175891754621947e-05
0.0495765732     3.617590889516787e-05
0.049745201     3.61759260941652e-05
0.0499138288     3.6175943351614494e-05
0.0500824566     3.617596066751624e-05
0.0502510844     3.617597804187099e-05
0.0504197122     3.6175995474679256e-05
0.05058834     3.617601296594158e-05
0.0507569678     3.617603051565846e-05
0.0509255956     3.617604812383045e-05
0.0510942234     3.617606579045808e-05
0.0512628512     3.617608351554189e-05
0.051431479     3.617610129908241e-05
0.0516001068     3.617611914108017e-05
0.0517687346     3.6176137041535726e-05
0.0519373624     3.617615500044961e-05
0.0521059902     3.617617301782236e-05
0.052274618     3.617619109365453e-05
0.052443245799999996     3.617620922794667e-05
0.0526118736     3.617622742069933e-05
0.0527805014     3.6176245671913043e-05
0.0529491292     3.617626398158839e-05
0.053117757     3.6176282349725896e-05
0.0532863848     3.617630077632613e-05
0.0534550126     3.617631926138965e-05
0.0536236404     3.617633780491702e-05
0.0537922682     3.6176356406908795e-05
0.053960896     3.617637506736553e-05
0.0541295238     3.617639378628782e-05
0.0542981516     3.61764125636762e-05
0.0544667794     3.617643139953125e-05
0.0546354072     3.617645029385354e-05
0.054804035     3.6176469246643645e-05
0.0549726628     3.617648825790213e-05
0.0551412906     3.617650732762957e-05
0.0553099184     3.6176526455826565e-05
0.0554785462     3.617654564249366e-05
0.055647174     3.6176564887631463e-05
0.0558158018     3.617658419124055e-05
0.055984429599999996     3.61766035533215e-05
0.0561530574     3.617662297387489e-05
0.0563216852     3.6176642452901344e-05
0.056490313     3.6176661990401414e-05
0.0566589408     3.61766815863757e-05
0.056827568599999996     3.6176701240824814e-05
0.0569961964     3.6176720953749324e-05
0.0571648242     3.617674072514986e-05
0.057333452     3.617676055502699e-05
0.0575020798     3.617678044338133e-05
0.0576707076     3.617680039021347e-05
0.0578393354     3.617682039552403e-05
0.0580079632     3.6176840459313616e-05
0.058176591     3.6176860581582816e-05
0.0583452188     3.617688076233227e-05
0.0585138466     3.617690100156255e-05
0.0586824744     3.61769212992743e-05
0.0588511022     3.617694165546811e-05
0.05901973     3.6176962070144633e-05
0.0591883578     3.617698254330446e-05
0.0593569856     3.6177003074948224e-05
0.059525613399999996     3.617702366507652e-05
0.0596942412     3.617704431369003e-05
0.059862869     3.617706502078931e-05
0.0600314968     3.617708578637503e-05
0.0602001246     3.61771066104478e-05
0.060368752399999996     3.6177127493008266e-05
0.0605373802     3.617714843405705e-05
0.060706008     3.6177169433594795e-05
0.0608746358     3.6177190491622126e-05
0.0610432636     3.61772116081397e-05
0.0612118914     3.6177232783148114e-05
0.0613805192     3.6177254016648084e-05
0.061549147     3.617727530864018e-05
0.0617177748     3.6177296659125084e-05
0.0618864026     3.617731806810344e-05
0.0620550304     3.617733953557589e-05
0.0622236582     3.6177361061543087e-05
0.062392286     3.617738264600567e-05
0.06256091379999999     3.617740428896432e-05
0.0627295416     3.617742599041968e-05
0.0628981694     3.617744775037242e-05
0.0630667972     3.617746956882317e-05
0.063235425     3.61774914457726e-05
0.0634040528     3.6177513381221394e-05
0.0635726806     3.6177535375170204e-05
0.0637413084     3.617755742761969e-05
0.0639099362     3.6177579538570544e-05
0.064078564     3.617760170802341e-05
0.0642471918     3.6177623935978956e-05
0.0644158196     3.617764622243789e-05
0.0645844474     3.617766856740085e-05
0.0647530752     3.617769097086854e-05
0.064921703     3.617771343284162e-05
0.0650903308     3.61777359533208e-05
0.0652589586     3.617775853230673e-05
0.0654275864     3.6177781169800107e-05
0.0655962142     3.617780386580164e-05
0.065764842     3.617782662031196e-05
0.0659334698     3.61778494333318e-05
0.06610209759999999     3.6177872304861864e-05
0.0662707254     3.6177895234902813e-05
0.0664393532     3.617791822345537e-05
0.066607981     3.6177941270520196e-05
0.0667766088     3.6177964376098024e-05
0.0669452366     3.617798754018954e-05
0.0671138644     3.617801076279544e-05
0.0672824922     3.617803404391645e-05
0.06745112     3.6178057383553263e-05
0.0676197478     3.6178080781706585e-05
0.0677883756     3.617810423837713e-05
0.0679570034     3.6178127753565585e-05
0.0681256312     3.6178151327272705e-05
0.068294259     3.6178174959499184e-05
0.0684628868     3.617819865024574e-05
0.0686315146     3.617822239951309e-05
0.0688001424     3.617824620730196e-05
0.0689687702     3.6178270073613055e-05
0.069137398     3.617829399844713e-05
0.0693060258     3.617831798180488e-05
0.0694746536     3.617834202368705e-05
0.06964328139999999     3.617836612409437e-05
0.0698119092     3.617839028302756e-05
0.069980537     3.617841450048738e-05
0.0701491648     3.617843877647451e-05
0.0703177926     3.617846311098975e-05
0.0704864204     3.61784875040338e-05
0.0706550482     3.6178511955607415e-05
0.070823676     3.617853646571131e-05
0.0709923038     3.617856103434628e-05
0.0711609316     3.6178585661513025e-05
0.0713295594     3.617861034721231e-05
0.0714981872     3.6178635091444886e-05
0.071666815     3.6178659894211504e-05
0.0718354428     3.617868475551291e-05
0.0720040706     3.617870967534985e-05
0.0721726984     3.617873465372311e-05
0.0723413262     3.617875969063342e-05
0.072509954     3.6178784786081564e-05
0.0726785818     3.617880994006828e-05
0.0728472096     3.6178835152594336e-05
0.0730158374     3.6178860423660514e-05
0.07318446519999999     3.617888575326757e-05
0.073353093     3.6178911141416274e-05
0.0735217208     3.617893658810739e-05
0.0736903486     3.617896209334169e-05
0.0738589764     3.617898765711998e-05
0.0740276042     3.6179013279442996e-05
0.074196232     3.617903896031153e-05
0.0743648598     3.617906469972636e-05
0.0745334876     3.617909049768828e-05
0.0747021154     3.617911635419806e-05
0.0748707432     3.61791422692565e-05
0.075039371     3.6179168242864356e-05
0.0752079988     3.6179194275022454e-05
0.0753766266     3.6179220365731556e-05
0.0755452544     3.6179246514992474e-05
0.0757138822     3.617927272280599e-05
0.07588251     3.617929898917292e-05
0.0760511378     3.6179325314094016e-05
0.0762197656     3.617935169757012e-05
0.0763883934     3.6179378139602035e-05
0.0765570212     3.617940464019054e-05
0.07672564899999999     3.617943119933645e-05
0.0768942768     3.617945781704057e-05
0.0770629046     3.6179484493303706e-05
0.0772315324     3.6179511228126686e-05
0.0774001602     3.6179538021510306e-05
0.077568788     3.6179564873455384e-05
0.0777374158     3.617959178396273e-05
0.0779060436     3.617961875303317e-05
0.0780746714     3.6179645780667534e-05
0.0782432992     3.617967286686661e-05
0.07841192699999999     3.617970001163123e-05
0.0785805548     3.617972721496225e-05
0.0787491826     3.6179754476860484e-05
0.0789178104     3.617978179732673e-05
0.0790864382     3.617980917636184e-05
0.079255066     3.617983661396666e-05
0.0794236938     3.617986411014201e-05
0.0795923216     3.617989166488873e-05
0.0797609494     3.617991927820765e-05
0.0799295772     3.61799469500996e-05
0.080098205     3.617997468056545e-05
0.0802668328     3.618000246960602e-05
0.0804354606     3.618003031722217e-05
0.0806040884     3.618005822341473e-05
0.0807727162     3.618008618818455e-05
0.080941344     3.618011421153251e-05
0.0811099718     3.618014229345942e-05
0.0812785996     3.618017043396616e-05
0.0814472274     3.618019863305357e-05
0.0816158552     3.618022689072253e-05
0.081784483     3.618025520697387e-05
0.08195311079999999     3.618028358180847e-05
0.0821217386     3.618031201522719e-05
0.0822903664     3.6180340507230894e-05
0.0824589942     3.618036905782043e-05
0.082627622     3.6180397666996726e-05
0.0827962498     3.618042633476057e-05
0.0829648776     3.618045506111289e-05
0.0831335054     3.618048384605455e-05
0.0833021332     3.6180512689586405e-05
0.083470761     3.6180541591709355e-05
0.0836393888     3.6180570552424265e-05
0.0838080166     3.618059957173203e-05
0.0839766444     3.618062864963351e-05
0.0841452722     3.6180657786129604e-05
0.0843139     3.618068698122121e-05
0.0844825278     3.618071623490919e-05
0.0846511556     3.618074554719446e-05
0.0848197834     3.618077491807789e-05
0.0849884112     3.61808043475604e-05
0.085157039     3.6180833835642856e-05
