Energy[eV]     Absorp.[arb.units]
0.0     3.61021980544571e-05
0.000168174     3.610219807869122e-05
0.000336348     3.610219815139356e-05
0.000504522     3.610219827256414e-05
0.000672696     3.6102198442202965e-05
0.00084087     3.6102198660310005e-05
0.001009044     3.61021989268853e-05
0.0011772179999999998     3.610219924192883e-05
0.001345392     3.6102199605440596e-05
0.001513566     3.6102200017420616e-05
0.00168174     3.610220047786888e-05
0.0018499139999999998     3.610220098678541e-05
0.002018088     3.61022015441702e-05
0.002186262     3.610220215002326e-05
0.0023544359999999997     3.610220280434459e-05
0.0025226099999999998     3.6102203507134214e-05
0.002690784     3.610220425839212e-05
0.002858958     3.6102205058118334e-05
0.003027132     3.6102205906312834e-05
0.0031953059999999998     3.610220680297565e-05
0.00336348     3.6102207748106804e-05
0.003531654     3.610220874170629e-05
0.0036998279999999996     3.6102209783774114e-05
0.0038680019999999997     3.61022108743103e-05
0.004036176     3.610221201331483e-05
0.00420435     3.610221320078777e-05
0.004372524     3.610221443672909e-05
0.004540698     3.610221572113881e-05
0.004708871999999999     3.610221705401695e-05
0.0048770459999999995     3.610221843536352e-05
0.0050452199999999996     3.610221986517854e-05
0.005213394     3.6102221343462027e-05
0.005381568     3.6102222870213984e-05
0.005549742     3.610222444543444e-05
0.005717916     3.6102226069123404e-05
0.00588609     3.61022277412809e-05
0.006054264     3.6102229461906935e-05
0.006222437999999999     3.610223123100154e-05
0.0063906119999999995     3.6102233048564734e-05
0.006558786     3.610223491459651e-05
0.00672696     3.610223682909693e-05
0.006895134     3.610223879206597e-05
0.007063308     3.6102240803503684e-05
0.007231482     3.610224286341008e-05
0.007399655999999999     3.610224497178518e-05
0.007567829999999999     3.610224712862901e-05
0.0077360039999999995     3.610224933394159e-05
0.007904178     3.610225158772294e-05
0.008072352     3.6102253889973106e-05
0.008240526     3.610225624069207e-05
0.0084087     3.610225863987989e-05
0.008576874     3.610226108753659e-05
0.008745048     3.610226358366217e-05
0.008913222     3.61022661282567e-05
0.009081396     3.610226872132015e-05
0.00924957     3.6102271362852606e-05
0.009417743999999999     3.610227405285406e-05
0.009585917999999999     3.6102276791324555e-05
0.009754091999999999     3.6102279578264105e-05
0.009922265999999999     3.610228241367275e-05
0.010090439999999999     3.610228529755051e-05
0.010258614     3.610228822989744e-05
0.010426788     3.6102291210713544e-05
0.010594962     3.6102294239998876e-05
0.010763136     3.610229731775346e-05
0.01093131     3.610230044397732e-05
0.011099484     3.610230361867049e-05
0.011267658     3.6102306841833e-05
0.011435832     3.610231011346491e-05
0.011604006     3.610231343356624e-05
0.01177218     3.610231680213701e-05
0.011940354     3.610232021917726e-05
0.012108528     3.610232368468704e-05
0.012276701999999999     3.610232719866639e-05
0.012444875999999999     3.6102330761115336e-05
0.012613049999999999     3.61023343720339e-05
0.012781223999999999     3.610233803142215e-05
0.012949397999999999     3.6102341739280125e-05
0.013117572     3.610234549560783e-05
0.013285746     3.610234930040534e-05
0.01345392     3.6102353153672675e-05
0.013622094     3.6102357055409884e-05
0.013790268     3.6102361005616996e-05
0.013958442     3.610236500429408e-05
0.014126616     3.6102369051441155e-05
0.01429479     3.610237314705827e-05
0.014462964     3.6102377291145464e-05
0.014631138     3.610238148370279e-05
0.014799311999999998     3.61023857247303e-05
0.014967485999999999     3.6102390014228007e-05
0.015135659999999999     3.6102394352195986e-05
0.015303833999999999     3.610239873863427e-05
0.015472007999999999     3.610240317354291e-05
0.015640182     3.610240765692195e-05
0.015808356     3.6102412188771444e-05
0.01597653     3.610241676909142e-05
0.016144704     3.6102421397881956e-05
0.016312878     3.6102426075143084e-05
0.016481052     3.610243080087485e-05
0.016649226     3.6102435575077316e-05
0.0168174     3.6102440397750515e-05
0.016985574     3.6102445268894524e-05
0.017153748     3.610245018850937e-05
0.017321922     3.6102455156595107e-05
0.017490096     3.6102460173151816e-05
0.01765827     3.6102465238179525e-05
0.017826444     3.6102470351678274e-05
0.017994618     3.610247551364815e-05
0.018162792     3.61024807240892e-05
0.018330966     3.610248598300146e-05
0.01849914     3.610249129038499e-05
0.018667314     3.610249664623987e-05
0.018835487999999997     3.610250205056613e-05
0.019003661999999998     3.610250750336384e-05
0.019171835999999998     3.610251300463306e-05
0.019340009999999998     3.610251855437383e-05
0.019508183999999998     3.610252415258623e-05
0.019676357999999998     3.610252979927032e-05
0.019844531999999998     3.610253549442613e-05
0.020012705999999998     3.610254123805376e-05
0.020180879999999998     3.610254703015325e-05
0.020349054     3.610255287072465e-05
0.020517228     3.6102558759768056e-05
0.020685402     3.6102564697283496e-05
0.020853576     3.610257068327104e-05
0.02102175     3.610257671773077e-05
0.021189924     3.610258280066274e-05
0.021358098     3.610258893206701e-05
0.021526272     3.6102595111943626e-05
0.021694446     3.610260134029269e-05
0.02186262     3.610260761711426e-05
0.022030794     3.6102613942408374e-05
0.022198968     3.610262031617513e-05
0.022367142     3.6102626738414585e-05
0.022535316     3.6102633209126816e-05
0.02270349     3.6102639728311856e-05
0.022871664     3.610264629596983e-05
0.023039838     3.6102652912100756e-05
0.023208012     3.610265957670473e-05
0.023376186     3.610266628978183e-05
0.02354436     3.610267305133211e-05
0.023712534     3.6102679861355636e-05
0.023880708     3.61026867198525e-05
0.024048882     3.610269362682276e-05
0.024217056     3.61027005822665e-05
0.024385229999999997     3.610270758618379e-05
0.024553403999999997     3.6102714638574704e-05
0.024721577999999998     3.61027217394393e-05
0.024889751999999998     3.610272888877767e-05
0.025057925999999998     3.61027360865899e-05
0.025226099999999998     3.6102743332876034e-05
0.025394273999999998     3.610275062763619e-05
0.025562447999999998     3.6102757970870416e-05
0.025730621999999998     3.6102765362578796e-05
0.025898795999999998     3.61027728027614e-05
0.02606697     3.6102780291418326e-05
0.026235144     3.6102787828549645e-05
0.026403318     3.610279541415543e-05
0.026571492     3.610280304823578e-05
0.026739666     3.6102810730790737e-05
0.02690784     3.610281846182042e-05
0.027076014     3.6102826241324905e-05
0.027244188     3.610283406930425e-05
0.027412362     3.610284194575858e-05
0.027580536     3.610284987068793e-05
0.02774871     3.610285784409242e-05
0.027916884     3.610286586597211e-05
0.028085058     3.610287393632712e-05
0.028253232     3.61028820551575e-05
0.028421406     3.6102890222463346e-05
0.02858958     3.610289843824474e-05
0.028757754     3.610290670250178e-05
0.028925928     3.610291501523454e-05
0.029094102     3.610292337644314e-05
0.029262276     3.610293178612763e-05
0.02943045     3.610294024428811e-05
0.029598623999999997     3.610294875092468e-05
0.029766797999999997     3.6102957306037434e-05
0.029934971999999997     3.610296590962644e-05
0.030103145999999997     3.61029745616918e-05
0.030271319999999997     3.610298326223361e-05
0.030439493999999997     3.6102992011251967e-05
0.030607667999999998     3.6103000808746946e-05
0.030775841999999998     3.610300965471865e-05
0.030944015999999998     3.610301854916717e-05
0.031112189999999998     3.6103027492092604e-05
0.031280364     3.610303648349505e-05
0.031448538     3.61030455233746e-05
0.031616712     3.610305461173134e-05
0.031784886     3.610306374856537e-05
0.03195306     3.6103072933876796e-05
0.032121234     3.610308216766573e-05
0.032289408     3.610309144993222e-05
0.032457582     3.61031007806764e-05
0.032625756     3.610311015989838e-05
0.03279393     3.610311958759822e-05
0.032962104     3.6103129063776054e-05
0.033130278     3.610313858843198e-05
0.033298452     3.6103148161566054e-05
0.033466626     3.610315778317844e-05
0.0336348     3.6103167453269204e-05
0.033802974     3.6103177171838456e-05
0.033971148     3.61031869388863e-05
0.034139322     3.610319675441284e-05
0.034307496     3.610320661841817e-05
0.03447567     3.6103216530902424e-05
0.034643844     3.610322649186566e-05
0.034812018     3.610323650130803e-05
0.034980192     3.610324655922959e-05
0.035148366     3.61032566656305e-05
0.03531654     3.610326682051083e-05
0.035484714     3.610327702387071e-05
0.035652888     3.610328727571024e-05
0.035821062     3.6103297576029515e-05
0.035989236     3.610330792482866e-05
0.03615741     3.610331832210778e-05
0.036325584     3.6103328767866985e-05
0.036493758     3.6103339262106374e-05
0.036661932     3.610334980482608e-05
0.036830106     3.6103360396026204e-05
0.03699828     3.610337103570686e-05
0.037166454     3.6103381723868155e-05
0.037334628     3.61033924605102e-05
0.037502802     3.610340324563312e-05
0.037670975999999995     3.610341407923703e-05
0.037839149999999995     3.610342496132202e-05
0.038007323999999995     3.610343589188825e-05
0.038175497999999995     3.610344687093579e-05
0.038343671999999995     3.610345789846479e-05
0.038511845999999995     3.610346897447533e-05
0.038680019999999996     3.610348009896757e-05
0.038848193999999996     3.6103491271941594e-05
0.039016367999999996     3.6103502493397535e-05
0.039184541999999996     3.6103513763335514e-05
0.039352715999999996     3.610352508175564e-05
0.039520889999999996     3.6103536448658054e-05
0.039689063999999996     3.610354786404283e-05
0.039857237999999996     3.6103559327910156e-05
0.040025411999999996     3.6103570840260094e-05
0.040193585999999996     3.61035824010928e-05
0.040361759999999997     3.610359401040838e-05
0.040529934     3.610360566820697e-05
0.040698108     3.6103617374488686e-05
0.040866282     3.610362912925364e-05
0.041034456     3.610364093250198e-05
0.04120263     3.6103652784233816e-05
0.041370804     3.6103664684449275e-05
0.041538978     3.610367663314849e-05
0.041707152     3.610368863033157e-05
0.041875326     3.610370067599866e-05
0.0420435     3.610371277014988e-05
0.042211674     3.610372491278537e-05
0.042379848     3.610373710390524e-05
0.042548022     3.6103749343509616e-05
0.042716196     3.610376163159865e-05
0.04288437     3.610377396817247e-05
0.043052544     3.61037863532312e-05
0.043220718     3.610379878677495e-05
0.043388892     3.6103811268803875e-05
0.043557066     3.6103823799318105e-05
0.04372524     3.610383637831777e-05
0.043893414     3.6103849005802994e-05
0.044061588     3.610386168177393e-05
0.044229762     3.610387440623071e-05
0.044397936     3.6103887179173445e-05
0.04456611     3.610390000060229e-05
0.044734284     3.610391287051739e-05
0.044902458     3.610392578891885e-05
0.045070632     3.6103938755806824e-05
0.045238806     3.6103951771181456e-05
0.04540698     3.610396483504289e-05
0.045575154     3.6103977947391236e-05
0.045743328     3.6103991108226654e-05
0.045911502     3.6104004317549273e-05
0.046079676     3.6104017575359244e-05
0.04624785     3.610403088165671e-05
0.046416024     3.610404423644178e-05
0.046584198     3.610405763971463e-05
0.046752372     3.610407109147539e-05
0.046920546     3.61040845917242e-05
0.04708872     3.610409814046121e-05
0.047256894     3.610411173768656e-05
0.047425068     3.6104125383400384e-05
0.047593242     3.6104139077602853e-05
0.047761416     3.610415282029409e-05
0.04792959     3.6104166611474236e-05
0.048097764     3.610418045114345e-05
0.048265938     3.6104194339301865e-05
0.048434112     3.610420827594966e-05
0.048602285999999995     3.6104222261086934e-05
0.048770459999999995     3.610423629471388e-05
0.048938633999999995     3.610425037683061e-05
0.049106807999999995     3.6104264507437314e-05
0.049274981999999995     3.610427868653411e-05
0.049443155999999995     3.6104292914121146e-05
0.049611329999999995     3.610430719019859e-05
0.049779503999999995     3.610432151476659e-05
0.049947677999999995     3.6104335887825303e-05
0.050115851999999995     3.610435030937485e-05
0.050284025999999996     3.610436477941542e-05
0.050452199999999996     3.6104379297947134e-05
0.050620373999999996     3.61043938649702e-05
0.050788547999999996     3.61044084804847e-05
0.050956721999999996     3.610442314449085e-05
0.051124895999999996     3.610443785698876e-05
0.051293069999999996     3.610445261797862e-05
0.051461243999999996     3.610446742746056e-05
0.051629417999999996     3.610448228543476e-05
0.051797591999999996     3.610449719190137e-05
0.051965766     3.610451214686054e-05
0.05213394     3.610452715031243e-05
0.052302114     3.61045422022572e-05
0.052470288     3.610455730269501e-05
0.052638462     3.610457245162602e-05
0.052806636     3.61045876490504e-05
0.05297481     3.610460289496829e-05
0.053142984     3.610461818937986e-05
0.053311158     3.6104633532285286e-05
0.053479332     3.6104648923684724e-05
0.053647506     3.610466436357833e-05
0.05381568     3.6104679851966266e-05
0.053983854     3.610469538884869e-05
0.054152028     3.61047109742258e-05
0.054320202     3.6104726608097724e-05
0.054488376     3.610474229046465e-05
0.05465655     3.610475802132672e-05
0.054824724     3.610477380068414e-05
0.054992898     3.610478962853703e-05
0.055161072     3.610480550488558e-05
0.055329246     3.610482142972997e-05
0.05549742     3.610483740307037e-05
0.055665594     3.610485342490692e-05
0.055833768     3.610486949523981e-05
0.056001942     3.6104885614069206e-05
0.056170116     3.6104901781395277e-05
0.05633829     3.6104917997218205e-05
0.056506464     3.6104934261538146e-05
0.056674638     3.6104950574355285e-05
0.056842812     3.610496693566979e-05
0.057010986     3.610498334548182e-05
0.05717916     3.6104999803791574e-05
0.057347334     3.6105016310599214e-05
0.057515508     3.610503286590492e-05
0.057683682     3.6105049469708854e-05
0.057851856     3.61050661220112e-05
0.05802003     3.610508282281213e-05
0.058188204     3.610509957211184e-05
0.058356378     3.610511636991049e-05
0.058524552     3.610513321620826e-05
0.058692726     3.6105150111005326e-05
0.0588609     3.610516705430188e-05
0.059029074     3.610518404609808e-05
0.059197247999999994     3.6105201086394126e-05
0.059365421999999994     3.610521817519019e-05
0.059533595999999994     3.610523531248646e-05
0.059701769999999994     3.610525249828309e-05
0.059869943999999994     3.610526973258031e-05
0.060038117999999994     3.6105287015378255e-05
0.060206291999999995     3.610530434667714e-05
0.060374465999999995     3.610532172647712e-05
0.060542639999999995     3.610533915477842e-05
0.060710813999999995     3.6105356631581194e-05
0.060878987999999995     3.6105374156885624e-05
0.061047161999999995     3.610539173069191e-05
0.061215335999999995     3.6105409353000235e-05
0.061383509999999995     3.6105427023810796e-05
0.061551683999999995     3.610544474312375e-05
0.061719857999999996     3.610546251093931e-05
0.061888031999999996     3.610548032725766e-05
0.062056205999999996     3.6105498192078995e-05
0.062224379999999996     3.6105516105403485e-05
0.062392553999999996     3.6105534067231324e-05
0.062560728     3.6105552077562716e-05
0.062728902     3.610557013639786e-05
0.062897076     3.6105588243736904e-05
0.06306525     3.6105606399580093e-05
0.063233424     3.6105624603927574e-05
0.063401598     3.610564285677957e-05
0.063569772     3.6105661158136256e-05
0.063737946     3.6105679507997844e-05
0.06390612     3.6105697906364516e-05
0.064074294     3.6105716353236455e-05
0.064242468     3.61057348486139e-05
0.064410642     3.6105753392496996e-05
0.064578816     3.6105771984885963e-05
0.06474698999999999     3.6105790625781e-05
0.064915164     3.6105809315182295e-05
0.06508333799999999     3.610582805309006e-05
0.065251512     3.6105846839504486e-05
0.06541968599999999     3.6105865674425766e-05
0.06558786     3.61058845578541e-05
0.06575603399999999     3.610590348978969e-05
0.065924208     3.610592247023276e-05
0.06609238199999999     3.610594149918347e-05
0.066260556     3.610596057664206e-05
0.06642872999999999     3.6105979702608706e-05
0.066596904     3.610599887708362e-05
0.06676507799999999     3.6106018100066994e-05
0.066933252     3.610603737155906e-05
0.06710142599999999     3.6106056691559985e-05
0.0672696     3.610607606007e-05
0.06743777399999999     3.61060954770893e-05
0.067605948     3.610611494261811e-05
0.06777412199999999     3.610613445665661e-05
0.067942296     3.610615401920501e-05
0.06811046999999999     3.610617363026353e-05
0.068278644     3.6106193289832365e-05
0.06844681799999999     3.6106212997911744e-05
0.068614992     3.6106232754501846e-05
0.06878316599999999     3.61062525596029e-05
0.06895134     3.6106272413215123e-05
0.06911951399999999     3.6106292315338706e-05
0.069287688     3.610631226597387e-05
0.069455862     3.6106332265120816e-05
0.069624036     3.6106352312779776e-05
0.06979221     3.610637240895095e-05
0.069960384     3.6106392553634546e-05
0.070128558     3.610641274683078e-05
0.070296732     3.610643298853989e-05
0.070464906     3.610645327876206e-05
0.07063308     3.610647361749751e-05
0.070801254     3.610649400474646e-05
0.070969428     3.610651444050912e-05
0.071137602     3.610653492478573e-05
0.071305776     3.610655545757649e-05
0.07147395     3.61065760388816e-05
0.071642124     3.610659666870133e-05
0.071810298     3.6106617347035826e-05
0.071978472     3.6106638073885364e-05
0.072146646     3.610665884925015e-05
0.07231482     3.610667967313038e-05
0.072482994     3.6106700545526316e-05
0.072651168     3.610672146643814e-05
0.072819342     3.610674243586611e-05
0.072987516     3.6106763453810414e-05
0.07315569     3.61067845202713e-05
0.073323864     3.610680563524898e-05
0.073492038     3.6106826798743676e-05
0.073660212     3.610684801075563e-05
0.073828386     3.6106869271285036e-05
0.07399656     3.6106890580332146e-05
0.074164734     3.610691193789717e-05
0.074332908     3.610693334398034e-05
0.074501082     3.610695479858188e-05
0.074669256     3.610697630170203e-05
0.07483743     3.6106997853340995e-05
0.075005604     3.610701945349903e-05
0.075173778     3.610704110217634e-05
0.07534195199999999     3.610706279937317e-05
0.075510126     3.6107084545089745e-05
0.07567829999999999     3.610710633932631e-05
0.075846474     3.6107128182083056e-05
0.07601464799999999     3.610715007336026e-05
0.076182822     3.6107172013158124e-05
0.07635099599999999     3.6107194001476896e-05
0.07651917     3.610721603831682e-05
0.07668734399999999     3.610723812367808e-05
0.076855518     3.6107260257560964e-05
0.07702369199999999     3.610728243996569e-05
0.077191866     3.610730467089249e-05
0.07736003999999999     3.6107326950341595e-05
0.077528214     3.610734927831324e-05
0.07769638799999999     3.6107371654807676e-05
0.077864562     3.610739407982512e-05
0.07803273599999999     3.610741655336583e-05
0.07820091     3.6107439075430025e-05
0.07836908399999999     3.610746164601796e-05
0.078537258     3.610748426512988e-05
0.07870543199999999     3.6107506932766e-05
0.078873606     3.610752964892659e-05
0.07904177999999999     3.610755241361186e-05
0.079209954     3.610757522682207e-05
0.07937812799999999     3.610759808855746e-05
0.079546302     3.610762099881826e-05
0.07971447599999999     3.610764395760473e-05
0.07988265     3.610766696491711e-05
0.08005082399999999     3.6107690020755634e-05
0.080218998     3.6107713125120565e-05
0.08038717199999999     3.610773627801212e-05
0.080555346     3.610775947943056e-05
0.08072351999999999     3.610778272937615e-05
0.080891694     3.610780602784912e-05
0.081059868     3.61078293748497e-05
0.081228042     3.610785277037814e-05
0.081396216     3.610787621443473e-05
0.08156439     3.6107899707019666e-05
0.081732564     3.610792324813323e-05
0.081900738     3.6107946837775656e-05
0.082068912     3.610797047594722e-05
0.082237086     3.610799416264813e-05
